TimeAll	TimeExperiment	R	Theta
1.094580e+002	8.099985e-002	9.202962e-005	1.063475e+002
1.096070e+002	2.299998e-001	9.198648e-005	1.062316e+002
1.097310e+002	3.539999e-001	9.193315e-005	1.061337e+002
1.098410e+002	4.640000e-001	9.192310e-005	1.060345e+002
1.099340e+002	5.569999e-001	9.186699e-005	1.059511e+002
1.100280e+002	6.509998e-001	9.184780e-005	1.058708e+002
1.101370e+002	7.600000e-001	9.184550e-005	1.057749e+002
1.102310e+002	8.539999e-001	9.183315e-005	1.056962e+002
1.103400e+002	9.629998e-001	9.181759e-005	1.056167e+002
1.104330e+002	1.056000e+000	9.177290e-005	1.055253e+002
1.105430e+002	1.166000e+000	9.177669e-005	1.054405e+002
1.106520e+002	1.275000e+000	9.175971e-005	1.053567e+002
1.107450e+002	1.368000e+000	9.172130e-005	1.052645e+002
1.108550e+002	1.478000e+000	9.171474e-005	1.051844e+002
1.109640e+002	1.587000e+000	9.174294e-005	1.050829e+002
1.110570e+002	1.680000e+000	9.170964e-005	1.049936e+002
1.111670e+002	1.790000e+000	9.169084e-005	1.049046e+002
1.112600e+002	1.883000e+000	9.169744e-005	1.048164e+002
1.113690e+002	1.992000e+000	9.169677e-005	1.047368e+002
1.114790e+002	2.102000e+000	9.171056e-005	1.046359e+002
1.115880e+002	2.211000e+000	9.167039e-005	1.045429e+002
1.116970e+002	2.320000e+000	9.171844e-005	1.044534e+002
1.117910e+002	2.414000e+000	9.170279e-005	1.043482e+002
1.118840e+002	2.507000e+000	9.172254e-005	1.042763e+002
1.119930e+002	2.616000e+000	9.174200e-005	1.041816e+002
1.121030e+002	2.726000e+000	9.175041e-005	1.040685e+002
1.122120e+002	2.835000e+000	9.178091e-005	1.039917e+002
1.123210e+002	2.944000e+000	9.176579e-005	1.038836e+002
1.124300e+002	3.053000e+000	9.178831e-005	1.037982e+002
1.125390e+002	3.162000e+000	9.182252e-005	1.036912e+002
1.126490e+002	3.272000e+000	9.184785e-005	1.035912e+002
1.127580e+002	3.381000e+000	9.186196e-005	1.034787e+002
1.128670e+002	3.490000e+000	9.189499e-005	1.033941e+002
1.129610e+002	3.584000e+000	9.192040e-005	1.032905e+002
1.130540e+002	3.677000e+000	9.192353e-005	1.032049e+002
1.131480e+002	3.771000e+000	9.194660e-005	1.031097e+002
1.132570e+002	3.880000e+000	9.198895e-005	1.030127e+002
1.133660e+002	3.989000e+000	9.201602e-005	1.029339e+002
1.134600e+002	4.083000e+000	9.205085e-005	1.028255e+002
1.135530e+002	4.176000e+000	9.208632e-005	1.027333e+002
1.136470e+002	4.270000e+000	9.211054e-005	1.026324e+002
1.137410e+002	4.364000e+000	9.216153e-005	1.025540e+002
1.138340e+002	4.457000e+000	9.220103e-005	1.024331e+002
1.139280e+002	4.551000e+000	9.222588e-005	1.023665e+002
1.140210e+002	4.644000e+000	9.228355e-005	1.022748e+002
1.141150e+002	4.738000e+000	9.230736e-005	1.021660e+002
1.142090e+002	4.832000e+000	9.235476e-005	1.020815e+002
1.143180e+002	4.941000e+000	9.242469e-005	1.019866e+002
1.144110e+002	5.034000e+000	9.247205e-005	1.018763e+002
1.145210e+002	5.144000e+000	9.250701e-005	1.017783e+002
1.146140e+002	5.237000e+000	9.257581e-005	1.016641e+002
1.147230e+002	5.346000e+000	9.262476e-005	1.015742e+002
1.148330e+002	5.456000e+000	9.269128e-005	1.014580e+002
1.149420e+002	5.565000e+000	9.277248e-005	1.013440e+002
1.150350e+002	5.658000e+000	9.282723e-005	1.012389e+002
1.151290e+002	5.752000e+000	9.289639e-005	1.011455e+002
1.152230e+002	5.846000e+000	9.297246e-005	1.010520e+002
1.153320e+002	5.955000e+000	9.303441e-005	1.009499e+002
1.154410e+002	6.064000e+000	9.312357e-005	1.008186e+002
1.155350e+002	6.158000e+000	9.321830e-005	1.007201e+002
1.156280e+002	6.251000e+000	9.327930e-005	1.006076e+002
1.157370e+002	6.360000e+000	9.336985e-005	1.005155e+002
1.158310e+002	6.454000e+000	9.345995e-005	1.004067e+002
1.159400e+002	6.563000e+000	9.354247e-005	1.003139e+002
1.160490e+002	6.672000e+000	9.363773e-005	1.001993e+002
1.161590e+002	6.782000e+000	9.376022e-005	1.000870e+002
1.162680e+002	6.891000e+000	9.384454e-005	9.998182e+001
1.163610e+002	6.984000e+000	9.397417e-005	9.986520e+001
1.164710e+002	7.094000e+000	9.405419e-005	9.976655e+001
1.165640e+002	7.187000e+000	9.419253e-005	9.965990e+001
1.166580e+002	7.281000e+000	9.428808e-005	9.955121e+001
1.167510e+002	7.374000e+000	9.435369e-005	9.945669e+001
1.168450e+002	7.468000e+000	9.449790e-005	9.935925e+001
1.169390e+002	7.562000e+000	9.460536e-005	9.926383e+001
1.170320e+002	7.655000e+000	9.472133e-005	9.916820e+001
1.171410e+002	7.764000e+000	9.483833e-005	9.905414e+001
1.172350e+002	7.858000e+000	9.499974e-005	9.895732e+001
1.173290e+002	7.952000e+000	9.512964e-005	9.887450e+001
1.174380e+002	8.061000e+000	9.523980e-005	9.876737e+001
1.175470e+002	8.170000e+000	9.537512e-005	9.866855e+001
1.176410e+002	8.264000e+000	9.555003e-005	9.856030e+001
1.177340e+002	8.357000e+000	9.567325e-005	9.848023e+001
1.178280e+002	8.451000e+000	9.583771e-005	9.838184e+001
1.179210e+002	8.544000e+000	9.593039e-005	9.828870e+001
1.180310e+002	8.654000e+000	9.610489e-005	9.820232e+001
1.181240e+002	8.747000e+000	9.630023e-005	9.810997e+001
1.182180e+002	8.841000e+000	9.646636e-005	9.800726e+001
1.183270e+002	8.950000e+000	9.661013e-005	9.793516e+001
1.184210e+002	9.044000e+000	9.679513e-005	9.783122e+001
1.185140e+002	9.137000e+000	9.695318e-005	9.775057e+001
1.186080e+002	9.231000e+000	9.710243e-005	9.766093e+001
1.187010e+002	9.324000e+000	9.727511e-005	9.759039e+001
1.188110e+002	9.434000e+000	9.746676e-005	9.750760e+001
1.189040e+002	9.527000e+000	9.765141e-005	9.740716e+001
1.189980e+002	9.621000e+000	9.783451e-005	9.733776e+001
1.191070e+002	9.730000e+000	9.802007e-005	9.724884e+001
1.192160e+002	9.839000e+000	9.824918e-005	9.714809e+001
1.193100e+002	9.933000e+000	9.845372e-005	9.707567e+001
1.194190e+002	1.004200e+001	9.866030e-005	9.700011e+001
1.195130e+002	1.013600e+001	9.889052e-005	9.691906e+001
1.196060e+002	1.022900e+001	9.909376e-005	9.684010e+001
1.197000e+002	1.032300e+001	9.930372e-005	9.676937e+001
1.197930e+002	1.041600e+001	9.950143e-005	9.670447e+001
1.198870e+002	1.051000e+001	9.969035e-005	9.663671e+001
1.199960e+002	1.061900e+001	9.991947e-005	9.656962e+001
1.200900e+002	1.071300e+001	1.001411e-004	9.649332e+001
1.201830e+002	1.080600e+001	1.003753e-004	9.643608e+001
1.202770e+002	1.090000e+001	1.005855e-004	9.636803e+001
1.203860e+002	1.100900e+001	1.007908e-004	9.632620e+001
1.204800e+002	1.110300e+001	1.010937e-004	9.625196e+001
1.205730e+002	1.119600e+001	1.013194e-004	9.620012e+001
1.206830e+002	1.130600e+001	1.015740e-004	9.614650e+001
1.207760e+002	1.139900e+001	1.018492e-004	9.608854e+001
1.208700e+002	1.149300e+001	1.020726e-004	9.603938e+001
1.209630e+002	1.158600e+001	1.023423e-004	9.599590e+001
1.210730e+002	1.169600e+001	1.026098e-004	9.594876e+001
1.211820e+002	1.180500e+001	1.028833e-004	9.588975e+001
1.212750e+002	1.189800e+001	1.031714e-004	9.586037e+001
1.213850e+002	1.200800e+001	1.034532e-004	9.581465e+001
1.214940e+002	1.211700e+001	1.037369e-004	9.578653e+001
1.215870e+002	1.221000e+001	1.040496e-004	9.574503e+001
1.216810e+002	1.230400e+001	1.043102e-004	9.571382e+001
1.217750e+002	1.239800e+001	1.045759e-004	9.567291e+001
1.218680e+002	1.249100e+001	1.048620e-004	9.565183e+001
1.219620e+002	1.258500e+001	1.051278e-004	9.562105e+001
1.220550e+002	1.267800e+001	1.054111e-004	9.561137e+001
1.221650e+002	1.278800e+001	1.056872e-004	9.558959e+001
1.222740e+002	1.289700e+001	1.059950e-004	9.557293e+001
1.223670e+002	1.299000e+001	1.063079e-004	9.554881e+001
1.224770e+002	1.310000e+001	1.066022e-004	9.554884e+001
1.225860e+002	1.320900e+001	1.069331e-004	9.553775e+001
1.226790e+002	1.330200e+001	1.072961e-004	9.553774e+001
1.227730e+002	1.339600e+001	1.075622e-004	9.552972e+001
1.228670e+002	1.349000e+001	1.078206e-004	9.554419e+001
1.229760e+002	1.359900e+001	1.080947e-004	9.553539e+001
1.230850e+002	1.370800e+001	1.084230e-004	9.554859e+001
1.231790e+002	1.380200e+001	1.087570e-004	9.554772e+001
1.232720e+002	1.389500e+001	1.090259e-004	9.555447e+001
1.233810e+002	1.400400e+001	1.093147e-004	9.557823e+001
1.234750e+002	1.409800e+001	1.096541e-004	9.558855e+001
1.235690e+002	1.419200e+001	1.099093e-004	9.561464e+001
1.236780e+002	1.430100e+001	1.101981e-004	9.563306e+001
1.237870e+002	1.441000e+001	1.105407e-004	9.566535e+001
1.238810e+002	1.450400e+001	1.108788e-004	9.569113e+001
1.239740e+002	1.459700e+001	1.111657e-004	9.572152e+001
1.240830e+002	1.470600e+001	1.114569e-004	9.575986e+001
1.241930e+002	1.481600e+001	1.117950e-004	9.579767e+001
1.243020e+002	1.492500e+001	1.120777e-004	9.583359e+001
1.244110e+002	1.503400e+001	1.124102e-004	9.588190e+001
1.245200e+002	1.514300e+001	1.127156e-004	9.593190e+001
1.245880e+002	1.521100e+001	1.130654e-004	9.599354e+001
1.246810e+002	1.530400e+001	1.133435e-004	9.604134e+001
