TimeAll	TimeExperiment	R	Theta
1.085650e+002	8.000016e-002	3.041026e-004	1.192058e+002
1.086590e+002	1.740000e-001	3.038957e-004	1.191807e+002
1.087530e+002	2.680001e-001	3.037021e-004	1.191569e+002
1.088470e+002	3.620000e-001	3.035061e-004	1.191286e+002
1.089470e+002	4.620001e-001	3.033296e-004	1.190992e+002
1.090420e+002	5.570002e-001	3.031368e-004	1.190721e+002
1.091400e+002	6.550000e-001	3.029174e-004	1.190472e+002
1.092360e+002	7.510002e-001	3.027024e-004	1.190128e+002
1.093290e+002	8.440001e-001	3.025211e-004	1.189803e+002
1.094240e+002	9.390001e-001	3.023058e-004	1.189539e+002
1.095190e+002	1.034000e+000	3.021073e-004	1.189183e+002
1.096130e+002	1.128000e+000	3.018892e-004	1.188913e+002
1.097060e+002	1.221000e+000	3.016805e-004	1.188512e+002
1.097990e+002	1.314000e+000	3.014462e-004	1.188186e+002
1.098930e+002	1.408000e+000	3.012306e-004	1.187826e+002
1.099860e+002	1.501000e+000	3.010190e-004	1.187448e+002
1.100810e+002	1.596000e+000	3.007791e-004	1.187087e+002
1.101770e+002	1.692000e+000	3.005184e-004	1.186666e+002
1.102730e+002	1.788000e+000	3.002997e-004	1.186273e+002
1.103680e+002	1.883000e+000	3.000910e-004	1.185838e+002
1.104660e+002	1.981000e+000	2.998356e-004	1.185378e+002
1.105620e+002	2.077000e+000	2.995813e-004	1.184953e+002
1.106630e+002	2.178000e+000	2.993277e-004	1.184469e+002
1.107570e+002	2.272000e+000	2.990569e-004	1.184005e+002
1.108520e+002	2.367000e+000	2.988209e-004	1.183508e+002
1.109450e+002	2.460000e+000	2.985820e-004	1.183012e+002
1.110410e+002	2.556000e+000	2.983060e-004	1.182517e+002
1.111390e+002	2.654000e+000	2.980315e-004	1.181963e+002
1.112340e+002	2.749000e+000	2.977715e-004	1.181400e+002
1.113290e+002	2.844000e+000	2.975179e-004	1.180849e+002
1.114240e+002	2.939000e+000	2.972776e-004	1.180261e+002
1.115190e+002	3.034000e+000	2.969762e-004	1.179631e+002
1.116120e+002	3.127000e+000	2.967098e-004	1.179072e+002
1.117040e+002	3.219000e+000	2.964633e-004	1.178449e+002
1.118000e+002	3.315000e+000	2.961871e-004	1.177779e+002
1.118940e+002	3.409000e+000	2.959010e-004	1.177104e+002
1.119880e+002	3.503000e+000	2.956538e-004	1.176388e+002
1.120830e+002	3.598000e+000	2.953514e-004	1.175688e+002
1.121780e+002	3.693000e+000	2.950441e-004	1.174911e+002
1.122730e+002	3.788000e+000	2.947773e-004	1.174114e+002
1.123670e+002	3.882000e+000	2.944939e-004	1.173302e+002
1.124630e+002	3.978000e+000	2.942091e-004	1.172485e+002
1.125570e+002	4.072000e+000	2.938747e-004	1.171579e+002
1.126490e+002	4.164000e+000	2.936213e-004	1.170741e+002
1.127420e+002	4.257000e+000	2.933326e-004	1.169822e+002
1.128350e+002	4.350000e+000	2.930416e-004	1.168874e+002
1.129300e+002	4.445000e+000	2.927588e-004	1.167879e+002
1.130260e+002	4.541000e+000	2.924689e-004	1.166843e+002
1.131190e+002	4.634000e+000	2.921737e-004	1.165735e+002
1.132140e+002	4.729000e+000	2.918836e-004	1.164664e+002
1.133090e+002	4.824000e+000	2.916263e-004	1.163483e+002
1.134050e+002	4.920000e+000	2.913236e-004	1.162278e+002
1.134990e+002	5.014000e+000	2.910427e-004	1.161099e+002
1.135950e+002	5.110000e+000	2.907744e-004	1.159779e+002
1.136900e+002	5.205000e+000	2.905107e-004	1.158418e+002
1.137890e+002	5.304000e+000	2.902441e-004	1.157040e+002
1.138850e+002	5.400000e+000	2.900026e-004	1.155571e+002
1.139790e+002	5.494000e+000	2.897193e-004	1.154097e+002
1.140720e+002	5.587000e+000	2.895261e-004	1.152576e+002
1.141640e+002	5.679000e+000	2.893033e-004	1.151035e+002
1.142610e+002	5.776000e+000	2.890760e-004	1.149338e+002
1.143540e+002	5.869000e+000	2.888879e-004	1.147720e+002
1.144480e+002	5.963000e+000	2.887208e-004	1.145928e+002
1.145410e+002	6.056000e+000	2.885606e-004	1.144202e+002
1.146360e+002	6.151000e+000	2.884444e-004	1.142251e+002
1.147330e+002	6.248000e+000	2.883235e-004	1.140270e+002
1.148250e+002	6.340000e+000	2.882493e-004	1.138266e+002
1.149190e+002	6.434000e+000	2.881735e-004	1.136199e+002
1.150150e+002	6.530000e+000	2.881608e-004	1.134073e+002
1.151120e+002	6.627000e+000	2.881528e-004	1.131700e+002
1.152050e+002	6.720000e+000	2.882221e-004	1.129488e+002
1.153000e+002	6.815000e+000	2.882640e-004	1.127154e+002
1.153920e+002	6.907000e+000	2.883877e-004	1.124825e+002
1.154850e+002	7.000000e+000	2.885348e-004	1.122355e+002
1.155770e+002	7.092000e+000	2.887037e-004	1.119827e+002
1.156710e+002	7.186000e+000	2.889821e-004	1.117317e+002
1.157650e+002	7.280000e+000	2.892903e-004	1.114694e+002
1.158590e+002	7.374000e+000	2.896244e-004	1.112039e+002
1.159510e+002	7.466000e+000	2.900731e-004	1.109304e+002
1.160460e+002	7.561000e+000	2.905584e-004	1.106599e+002
1.161380e+002	7.653000e+000	2.911121e-004	1.103850e+002
1.162300e+002	7.745000e+000	2.917511e-004	1.101059e+002
1.163230e+002	7.838000e+000	2.924894e-004	1.098293e+002
1.164170e+002	7.932000e+000	2.932934e-004	1.095433e+002
1.165110e+002	8.026000e+000	2.941795e-004	1.092713e+002
1.166030e+002	8.118000e+000	2.951604e-004	1.089878e+002
1.166980e+002	8.213000e+000	2.962331e-004	1.087107e+002
1.167890e+002	8.304000e+000	2.973922e-004	1.084455e+002
1.168820e+002	8.397000e+000	2.986187e-004	1.081875e+002
1.169760e+002	8.491000e+000	3.000462e-004	1.079254e+002
1.170730e+002	8.588000e+000	3.015917e-004	1.076646e+002
1.171650e+002	8.680000e+000	3.031302e-004	1.074282e+002
1.172610e+002	8.776000e+000	3.048243e-004	1.071940e+002
1.173570e+002	8.872000e+000	3.066406e-004	1.069741e+002
1.174530e+002	8.968000e+000	3.086054e-004	1.067729e+002
1.175470e+002	9.062000e+000	3.106475e-004	1.065908e+002
1.176430e+002	9.158000e+000	3.127873e-004	1.064282e+002
1.177360e+002	9.251000e+000	3.149489e-004	1.062898e+002
1.178300e+002	9.345000e+000	3.172710e-004	1.061646e+002
1.179230e+002	9.438000e+000	3.195907e-004	1.060740e+002
1.180160e+002	9.531000e+000	3.219962e-004	1.060047e+002
1.181110e+002	9.626000e+000	3.244804e-004	1.059577e+002
1.182070e+002	9.722000e+000	3.269640e-004	1.059404e+002
1.183020e+002	9.817000e+000	3.295160e-004	1.059464e+002
1.183950e+002	9.910000e+000	3.320147e-004	1.059820e+002
1.184880e+002	1.000300e+001	3.345183e-004	1.060426e+002
1.185810e+002	1.009600e+001	3.370189e-004	1.061256e+002
1.186750e+002	1.019000e+001	3.394957e-004	1.062383e+002
1.187690e+002	1.028400e+001	3.419380e-004	1.063712e+002
1.188620e+002	1.037700e+001	3.442839e-004	1.065253e+002
1.189580e+002	1.047300e+001	3.466333e-004	1.067044e+002
1.190530e+002	1.056800e+001	3.489364e-004	1.069029e+002
1.191470e+002	1.066200e+001	3.509987e-004	1.071170e+002
1.192400e+002	1.075500e+001	3.530520e-004	1.073487e+002
1.193360e+002	1.085100e+001	3.550013e-004	1.075895e+002
1.194300e+002	1.094500e+001	3.568759e-004	1.078426e+002
1.195250e+002	1.104000e+001	3.585942e-004	1.081163e+002
1.196180e+002	1.113300e+001	3.601594e-004	1.083816e+002
1.197110e+002	1.122600e+001	3.616810e-004	1.086590e+002
1.198070e+002	1.132200e+001	3.630728e-004	1.089528e+002
1.198990e+002	1.141400e+001	3.643267e-004	1.092407e+002
1.199940e+002	1.150900e+001	3.654679e-004	1.095242e+002
1.200890e+002	1.160400e+001	3.665306e-004	1.098119e+002
1.201840e+002	1.169900e+001	3.674374e-004	1.101118e+002
1.202780e+002	1.179300e+001	3.682729e-004	1.103903e+002
1.203730e+002	1.188800e+001	3.690322e-004	1.106797e+002
1.204650e+002	1.198000e+001	3.696462e-004	1.109530e+002
1.205580e+002	1.207300e+001	3.701924e-004	1.112181e+002
1.206500e+002	1.216500e+001	3.706749e-004	1.114861e+002
