TimeAll	TimeExperiment	R	Theta
1.736510e+002	8.200002e-002	3.059915e-004	1.193237e+002
1.737440e+002	1.750000e-001	3.059170e-004	1.193116e+002
1.738400e+002	2.709999e-001	3.058397e-004	1.193029e+002
1.739380e+002	3.690000e-001	3.057484e-004	1.192994e+002
1.740350e+002	4.659998e-001	3.056733e-004	1.192877e+002
1.741320e+002	5.630000e-001	3.056126e-004	1.192763e+002
1.742290e+002	6.599998e-001	3.055463e-004	1.192671e+002
1.743240e+002	7.549999e-001	3.054696e-004	1.192546e+002
1.744180e+002	8.490000e-001	3.053702e-004	1.192494e+002
1.745160e+002	9.470000e-001	3.053171e-004	1.192355e+002
1.746090e+002	1.040000e+000	3.052523e-004	1.192206e+002
1.747040e+002	1.135000e+000	3.051645e-004	1.192138e+002
1.747960e+002	1.227000e+000	3.050880e-004	1.192047e+002
1.748900e+002	1.321000e+000	3.050379e-004	1.191936e+002
1.749860e+002	1.417000e+000	3.049420e-004	1.191863e+002
1.750760e+002	1.507000e+000	3.048570e-004	1.191721e+002
1.751770e+002	1.608000e+000	3.047930e-004	1.191619e+002
1.752690e+002	1.700000e+000	3.047299e-004	1.191511e+002
1.753620e+002	1.793000e+000	3.046306e-004	1.191419e+002
1.754560e+002	1.887000e+000	3.045780e-004	1.191277e+002
1.755480e+002	1.979000e+000	3.045133e-004	1.191193e+002
1.756430e+002	2.074000e+000	3.044120e-004	1.191057e+002
1.757360e+002	2.167000e+000	3.043365e-004	1.190942e+002
1.758320e+002	2.263000e+000	3.042756e-004	1.190827e+002
1.759250e+002	2.356000e+000	3.041693e-004	1.190729e+002
1.760180e+002	2.449000e+000	3.040903e-004	1.190610e+002
1.761120e+002	2.543000e+000	3.040248e-004	1.190468e+002
1.762080e+002	2.639000e+000	3.039520e-004	1.190368e+002
1.763020e+002	2.733000e+000	3.038617e-004	1.190257e+002
1.763930e+002	2.824000e+000	3.037935e-004	1.190121e+002
1.764860e+002	2.917000e+000	3.037030e-004	1.190043e+002
1.765800e+002	3.011000e+000	3.036160e-004	1.189914e+002
1.766740e+002	3.105000e+000	3.035389e-004	1.189773e+002
1.767720e+002	3.203000e+000	3.034698e-004	1.189664e+002
1.768630e+002	3.294000e+000	3.033894e-004	1.189531e+002
1.769560e+002	3.387000e+000	3.033040e-004	1.189398e+002
1.770480e+002	3.479000e+000	3.032448e-004	1.189270e+002
1.771410e+002	3.572000e+000	3.031334e-004	1.189128e+002
1.772370e+002	3.668000e+000	3.030483e-004	1.188989e+002
1.773280e+002	3.759000e+000	3.029819e-004	1.188849e+002
1.774240e+002	3.855000e+000	3.028898e-004	1.188745e+002
1.775200e+002	3.951000e+000	3.028061e-004	1.188572e+002
1.776130e+002	4.044000e+000	3.027341e-004	1.188460e+002
1.777080e+002	4.139000e+000	3.026413e-004	1.188301e+002
1.778000e+002	4.231000e+000	3.025301e-004	1.188202e+002
1.778940e+002	4.325000e+000	3.024934e-004	1.188051e+002
1.779860e+002	4.417000e+000	3.023985e-004	1.187900e+002
1.780810e+002	4.512000e+000	3.023086e-004	1.187713e+002
1.781770e+002	4.608000e+000	3.022380e-004	1.187637e+002
1.782710e+002	4.702000e+000	3.021505e-004	1.187442e+002
1.783630e+002	4.794000e+000	3.020572e-004	1.187324e+002
1.784560e+002	4.887000e+000	3.019724e-004	1.187154e+002
1.785510e+002	4.982000e+000	3.019130e-004	1.187001e+002
1.786440e+002	5.075000e+000	3.018195e-004	1.186893e+002
1.787410e+002	5.172000e+000	3.016912e-004	1.186719e+002
1.788350e+002	5.266000e+000	3.016364e-004	1.186590e+002
1.789280e+002	5.359000e+000	3.015613e-004	1.186396e+002
1.790210e+002	5.452000e+000	3.014454e-004	1.186270e+002
1.791150e+002	5.546000e+000	3.013669e-004	1.186074e+002
1.792090e+002	5.640000e+000	3.012931e-004	1.185885e+002
1.793070e+002	5.738000e+000	3.011984e-004	1.185725e+002
1.794010e+002	5.832000e+000	3.010753e-004	1.185570e+002
1.794940e+002	5.925000e+000	3.010265e-004	1.185422e+002
1.795890e+002	6.020000e+000	3.009156e-004	1.185224e+002
1.796820e+002	6.113000e+000	3.008130e-004	1.185092e+002
1.797750e+002	6.206000e+000	3.007468e-004	1.184896e+002
1.798720e+002	6.303000e+000	3.006505e-004	1.184727e+002
1.799670e+002	6.398000e+000	3.005678e-004	1.184551e+002
1.800600e+002	6.491000e+000	3.004317e-004	1.184384e+002
1.801520e+002	6.583000e+000	3.003788e-004	1.184186e+002
1.802490e+002	6.680000e+000	3.002996e-004	1.184003e+002
1.803430e+002	6.774000e+000	3.001835e-004	1.183839e+002
1.804350e+002	6.866000e+000	3.000905e-004	1.183644e+002
1.805320e+002	6.963000e+000	3.000152e-004	1.183464e+002
1.806260e+002	7.057000e+000	2.999131e-004	1.183199e+002
1.807210e+002	7.152000e+000	2.997995e-004	1.183057e+002
1.808240e+002	7.255000e+000	2.997145e-004	1.182855e+002
1.809190e+002	7.350000e+000	2.996112e-004	1.182670e+002
1.810100e+002	7.441000e+000	2.995312e-004	1.182474e+002
1.811040e+002	7.535000e+000	2.994383e-004	1.182254e+002
1.811980e+002	7.629000e+000	2.993264e-004	1.182055e+002
1.812980e+002	7.729000e+000	2.992178e-004	1.181830e+002
1.813930e+002	7.824000e+000	2.991302e-004	1.181585e+002
1.814860e+002	7.917000e+000	2.990597e-004	1.181449e+002
1.815810e+002	8.012000e+000	2.989349e-004	1.181197e+002
1.816760e+002	8.107000e+000	2.988537e-004	1.180999e+002
1.817710e+002	8.202000e+000	2.987813e-004	1.180742e+002
1.818650e+002	8.296000e+000	2.986649e-004	1.180554e+002
1.819610e+002	8.392000e+000	2.985707e-004	1.180319e+002
1.820550e+002	8.486000e+000	2.984503e-004	1.180074e+002
1.821500e+002	8.581000e+000	2.983731e-004	1.179845e+002
1.822450e+002	8.676000e+000	2.982676e-004	1.179632e+002
1.823390e+002	8.770000e+000	2.981702e-004	1.179433e+002
1.824340e+002	8.865000e+000	2.980634e-004	1.179156e+002
1.825300e+002	8.961000e+000	2.979940e-004	1.178955e+002
1.826260e+002	9.057000e+000	2.979011e-004	1.178689e+002
1.827210e+002	9.152000e+000	2.977678e-004	1.178451e+002
1.828170e+002	9.248000e+000	2.976767e-004	1.178213e+002
1.829100e+002	9.341000e+000	2.976083e-004	1.177983e+002
1.830120e+002	9.443000e+000	2.975192e-004	1.177702e+002
1.831060e+002	9.537000e+000	2.973816e-004	1.177440e+002
1.832000e+002	9.631000e+000	2.972573e-004	1.177201e+002
1.832930e+002	9.724000e+000	2.971916e-004	1.176918e+002
1.833860e+002	9.817000e+000	2.970967e-004	1.176625e+002
1.834830e+002	9.914000e+000	2.969695e-004	1.176365e+002
1.835780e+002	1.000900e+001	2.968926e-004	1.176112e+002
1.836730e+002	1.010400e+001	2.967881e-004	1.175845e+002
1.837650e+002	1.019600e+001	2.966867e-004	1.175565e+002
1.838600e+002	1.029100e+001	2.965920e-004	1.175303e+002
1.839550e+002	1.038600e+001	2.965096e-004	1.175027e+002
1.840480e+002	1.047900e+001	2.964041e-004	1.174720e+002
1.841410e+002	1.057200e+001	2.962885e-004	1.174475e+002
1.842350e+002	1.066600e+001	2.962081e-004	1.174166e+002
1.843310e+002	1.076200e+001	2.961167e-004	1.173833e+002
1.844260e+002	1.085700e+001	2.959862e-004	1.173518e+002
1.845210e+002	1.095200e+001	2.958832e-004	1.173221e+002
1.846170e+002	1.104800e+001	2.957971e-004	1.172899e+002
1.847110e+002	1.114200e+001	2.957088e-004	1.172606e+002
1.848060e+002	1.123700e+001	2.956137e-004	1.172263e+002
1.849020e+002	1.133300e+001	2.954869e-004	1.171927e+002
1.849950e+002	1.142600e+001	2.954012e-004	1.171623e+002
1.850870e+002	1.151800e+001	2.952912e-004	1.171288e+002
1.851850e+002	1.161600e+001	2.951841e-004	1.170942e+002
1.852820e+002	1.171300e+001	2.950870e-004	1.170562e+002
1.853750e+002	1.180600e+001	2.949692e-004	1.170229e+002
1.854690e+002	1.190000e+001	2.948799e-004	1.169884e+002
1.855640e+002	1.199500e+001	2.947573e-004	1.169480e+002
1.856550e+002	1.208600e+001	2.946679e-004	1.169176e+002
1.857480e+002	1.217900e+001	2.945910e-004	1.168787e+002
1.858440e+002	1.227500e+001	2.944491e-004	1.168400e+002
1.859390e+002	1.237000e+001	2.943503e-004	1.167997e+002
1.860330e+002	1.246400e+001	2.942707e-004	1.167653e+002
1.861260e+002	1.255700e+001	2.941512e-004	1.167233e+002
1.862210e+002	1.265200e+001	2.940363e-004	1.166869e+002
1.863140e+002	1.274500e+001	2.939577e-004	1.166474e+002
1.864100e+002	1.284100e+001	2.938642e-004	1.166018e+002
1.865010e+002	1.293200e+001	2.937479e-004	1.165619e+002
1.865950e+002	1.302600e+001	2.936545e-004	1.165322e+002
1.866880e+002	1.311900e+001	2.935875e-004	1.164844e+002
1.867800e+002	1.321100e+001	2.934550e-004	1.164449e+002
1.868750e+002	1.330600e+001	2.933622e-004	1.163995e+002
1.869680e+002	1.339900e+001	2.932899e-004	1.163584e+002
1.870630e+002	1.349400e+001	2.931615e-004	1.163140e+002
1.871560e+002	1.358700e+001	2.930867e-004	1.162718e+002
1.872490e+002	1.368000e+001	2.930062e-004	1.162266e+002
1.873430e+002	1.377400e+001	2.928807e-004	1.161823e+002
1.874360e+002	1.386700e+001	2.928119e-004	1.161336e+002
1.875290e+002	1.396000e+001	2.927156e-004	1.160922e+002
1.876220e+002	1.405300e+001	2.926224e-004	1.160396e+002
1.877160e+002	1.414700e+001	2.925425e-004	1.159887e+002
1.878100e+002	1.424100e+001	2.924524e-004	1.159457e+002
1.879060e+002	1.433700e+001	2.923608e-004	1.158921e+002
1.880020e+002	1.443300e+001	2.922479e-004	1.158480e+002
1.880960e+002	1.452700e+001	2.921856e-004	1.157939e+002
1.881920e+002	1.462300e+001	2.921110e-004	1.157404e+002
1.882860e+002	1.471700e+001	2.920035e-004	1.156871e+002
1.883780e+002	1.480900e+001	2.919270e-004	1.156343e+002
1.884790e+002	1.491000e+001	2.918314e-004	1.155799e+002
1.885730e+002	1.500400e+001	2.918002e-004	1.155259e+002
1.886670e+002	1.509800e+001	2.917092e-004	1.154740e+002
1.887600e+002	1.519100e+001	2.916163e-004	1.154205e+002
1.888540e+002	1.528500e+001	2.915473e-004	1.153605e+002
1.889510e+002	1.538200e+001	2.914989e-004	1.153065e+002
1.890480e+002	1.547900e+001	2.914033e-004	1.152456e+002
1.891430e+002	1.557400e+001	2.913302e-004	1.151912e+002
1.892370e+002	1.566800e+001	2.912589e-004	1.151304e+002
1.893330e+002	1.576400e+001	2.912198e-004	1.150725e+002
1.894290e+002	1.586000e+001	2.911653e-004	1.150117e+002
1.895240e+002	1.595500e+001	2.910666e-004	1.149495e+002
1.896190e+002	1.605000e+001	2.910064e-004	1.148880e+002
1.897120e+002	1.614300e+001	2.909637e-004	1.148328e+002
1.898050e+002	1.623600e+001	2.909013e-004	1.147685e+002
1.898970e+002	1.632800e+001	2.908563e-004	1.147092e+002
1.899910e+002	1.642200e+001	2.908277e-004	1.146459e+002
1.900860e+002	1.651700e+001	2.907644e-004	1.145797e+002
1.901810e+002	1.661200e+001	2.907274e-004	1.145195e+002
1.902740e+002	1.670500e+001	2.907496e-004	1.144529e+002
1.903710e+002	1.680200e+001	2.906751e-004	1.143842e+002
1.904650e+002	1.689600e+001	2.906103e-004	1.143204e+002
1.905570e+002	1.698800e+001	2.905908e-004	1.142516e+002
1.906490e+002	1.708000e+001	2.905761e-004	1.141826e+002
1.907460e+002	1.717700e+001	2.905315e-004	1.141118e+002
1.908390e+002	1.727000e+001	2.905009e-004	1.140419e+002
1.909340e+002	1.736500e+001	2.905110e-004	1.139717e+002
1.910270e+002	1.745800e+001	2.904838e-004	1.138990e+002
1.911230e+002	1.755400e+001	2.904557e-004	1.138258e+002
1.912180e+002	1.764900e+001	2.904567e-004	1.137474e+002
1.913090e+002	1.774000e+001	2.904859e-004	1.136764e+002
1.914000e+002	1.783100e+001	2.904505e-004	1.136031e+002
1.914930e+002	1.792400e+001	2.904677e-004	1.135351e+002
1.915880e+002	1.801900e+001	2.904732e-004	1.134585e+002
1.916840e+002	1.811500e+001	2.904916e-004	1.133800e+002
1.917740e+002	1.820500e+001	2.905100e-004	1.133049e+002
1.918670e+002	1.829800e+001	2.905173e-004	1.132297e+002
1.919570e+002	1.838800e+001	2.905576e-004	1.131535e+002
1.920510e+002	1.848200e+001	2.906017e-004	1.130724e+002
1.921460e+002	1.857700e+001	2.906213e-004	1.129952e+002
1.922380e+002	1.866900e+001	2.906607e-004	1.129190e+002
1.923320e+002	1.876300e+001	2.907373e-004	1.128357e+002
1.924260e+002	1.885700e+001	2.907848e-004	1.127551e+002
1.925190e+002	1.895000e+001	2.908272e-004	1.126741e+002
1.926180e+002	1.904900e+001	2.909099e-004	1.125896e+002
1.927100e+002	1.914100e+001	2.909999e-004	1.125055e+002
1.928060e+002	1.923700e+001	2.910597e-004	1.124178e+002
1.928970e+002	1.932800e+001	2.911379e-004	1.123343e+002
1.929900e+002	1.942100e+001	2.912470e-004	1.122537e+002
1.930840e+002	1.951500e+001	2.913422e-004	1.121676e+002
1.931760e+002	1.960700e+001	2.914317e-004	1.120821e+002
1.932690e+002	1.970000e+001	2.915541e-004	1.120050e+002
1.933630e+002	1.979400e+001	2.916283e-004	1.119131e+002
1.934580e+002	1.988900e+001	2.917929e-004	1.118200e+002
1.935510e+002	1.998200e+001	2.919273e-004	1.117380e+002
1.936460e+002	2.007700e+001	2.920657e-004	1.116470e+002
1.937380e+002	2.016900e+001	2.922140e-004	1.115553e+002
1.938320e+002	2.026300e+001	2.923685e-004	1.114657e+002
1.939250e+002	2.035600e+001	2.925422e-004	1.113693e+002
1.940190e+002	2.045000e+001	2.927332e-004	1.112710e+002
1.941120e+002	2.054300e+001	2.929474e-004	1.111771e+002
1.942080e+002	2.063900e+001	2.930835e-004	1.110852e+002
1.943010e+002	2.073200e+001	2.932639e-004	1.109901e+002
1.943940e+002	2.082500e+001	2.935023e-004	1.108963e+002
1.944890e+002	2.092000e+001	2.937219e-004	1.107976e+002
1.945830e+002	2.101400e+001	2.939336e-004	1.106996e+002
1.946760e+002	2.110700e+001	2.942018e-004	1.106072e+002
1.947700e+002	2.120100e+001	2.944562e-004	1.105135e+002
1.948630e+002	2.129400e+001	2.946852e-004	1.104184e+002
1.949570e+002	2.138800e+001	2.949956e-004	1.103181e+002
1.950510e+002	2.148200e+001	2.952498e-004	1.102229e+002
1.951440e+002	2.157500e+001	2.955442e-004	1.101277e+002
1.952390e+002	2.167000e+001	2.958443e-004	1.100299e+002
1.953340e+002	2.176500e+001	2.961931e-004	1.099377e+002
1.954270e+002	2.185800e+001	2.964845e-004	1.098444e+002
1.955210e+002	2.195200e+001	2.968008e-004	1.097538e+002
1.956150e+002	2.204600e+001	2.971758e-004	1.096568e+002
1.957090e+002	2.214000e+001	2.975227e-004	1.095667e+002
1.958040e+002	2.223500e+001	2.978953e-004	1.094718e+002
1.958990e+002	2.233000e+001	2.982673e-004	1.093777e+002
1.959940e+002	2.242500e+001	2.986330e-004	1.092927e+002
1.960860e+002	2.251700e+001	2.990294e-004	1.092047e+002
1.961800e+002	2.261100e+001	2.994426e-004	1.091179e+002
1.962740e+002	2.270500e+001	2.998578e-004	1.090256e+002
1.963670e+002	2.279800e+001	3.002540e-004	1.089391e+002
1.964630e+002	2.289400e+001	3.006840e-004	1.088519e+002
1.965580e+002	2.298900e+001	3.011415e-004	1.087671e+002
1.966510e+002	2.308200e+001	3.016321e-004	1.086841e+002
1.967460e+002	2.317700e+001	3.020843e-004	1.086011e+002
1.968390e+002	2.327000e+001	3.025706e-004	1.085190e+002
1.969310e+002	2.336200e+001	3.030600e-004	1.084407e+002
1.970250e+002	2.345600e+001	3.035276e-004	1.083634e+002
1.971170e+002	2.354800e+001	3.040491e-004	1.082844e+002
1.972120e+002	2.364300e+001	3.045746e-004	1.082090e+002
1.973060e+002	2.373700e+001	3.051112e-004	1.081343e+002
1.974020e+002	2.383300e+001	3.056467e-004	1.080553e+002
1.974960e+002	2.392700e+001	3.062442e-004	1.079796e+002
1.975900e+002	2.402100e+001	3.068224e-004	1.079093e+002
1.976820e+002	2.411300e+001	3.073819e-004	1.078427e+002
1.977760e+002	2.420700e+001	3.079902e-004	1.077755e+002
1.978680e+002	2.429900e+001	3.085762e-004	1.077116e+002
1.979610e+002	2.439200e+001	3.091847e-004	1.076515e+002
1.980540e+002	2.448500e+001	3.098229e-004	1.075879e+002
1.981460e+002	2.457700e+001	3.104520e-004	1.075296e+002
1.982390e+002	2.467000e+001	3.110891e-004	1.074707e+002
1.983330e+002	2.476400e+001	3.117849e-004	1.074094e+002
1.984260e+002	2.485700e+001	3.124792e-004	1.073560e+002
1.985190e+002	2.495000e+001	3.131356e-004	1.073026e+002
1.986160e+002	2.504700e+001	3.138528e-004	1.072512e+002
1.987100e+002	2.514100e+001	3.145743e-004	1.072025e+002
1.988030e+002	2.523400e+001	3.152815e-004	1.071548e+002
1.988960e+002	2.532700e+001	3.160060e-004	1.071094e+002
1.989920e+002	2.542300e+001	3.167616e-004	1.070673e+002
1.990870e+002	2.551800e+001	3.174731e-004	1.070303e+002
1.991830e+002	2.561400e+001	3.182205e-004	1.069945e+002
1.992760e+002	2.570700e+001	3.189881e-004	1.069677e+002
1.993670e+002	2.579800e+001	3.197376e-004	1.069337e+002
1.994610e+002	2.589200e+001	3.205222e-004	1.069066e+002
1.995580e+002	2.598900e+001	3.213437e-004	1.068870e+002
1.996530e+002	2.608400e+001	3.221232e-004	1.068623e+002
1.997460e+002	2.617700e+001	3.229422e-004	1.068444e+002
1.998400e+002	2.627100e+001	3.236669e-004	1.068219e+002
1.999330e+002	2.636400e+001	3.244825e-004	1.068144e+002
2.000240e+002	2.645500e+001	3.252409e-004	1.068043e+002
2.001180e+002	2.654900e+001	3.260768e-004	1.067988e+002
2.002140e+002	2.664500e+001	3.269015e-004	1.067943e+002
2.003070e+002	2.673800e+001	3.276897e-004	1.067884e+002
2.004020e+002	2.683300e+001	3.285051e-004	1.067940e+002
2.005010e+002	2.693200e+001	3.293763e-004	1.067999e+002
2.005950e+002	2.702600e+001	3.302105e-004	1.068082e+002
2.006910e+002	2.712200e+001	3.310075e-004	1.068228e+002
2.007870e+002	2.721800e+001	3.318020e-004	1.068330e+002
2.008830e+002	2.731400e+001	3.326007e-004	1.068516e+002
2.009800e+002	2.741100e+001	3.334359e-004	1.068697e+002
2.010680e+002	2.749900e+001	3.341823e-004	1.068890e+002
2.011600e+002	2.759100e+001	3.349632e-004	1.069109e+002
2.012530e+002	2.768400e+001	3.357741e-004	1.069383e+002
2.013450e+002	2.777600e+001	3.365157e-004	1.069683e+002
2.014390e+002	2.787000e+001	3.373457e-004	1.070034e+002
2.015320e+002	2.796300e+001	3.381187e-004	1.070399e+002
2.016260e+002	2.805700e+001	3.388835e-004	1.070677e+002
2.017170e+002	2.814800e+001	3.396847e-004	1.071128e+002
2.018120e+002	2.824300e+001	3.404393e-004	1.071508e+002
2.019070e+002	2.833800e+001	3.411502e-004	1.071992e+002
2.020000e+002	2.843100e+001	3.419378e-004	1.072435e+002
2.020940e+002	2.852500e+001	3.426704e-004	1.072890e+002
2.021860e+002	2.861700e+001	3.433888e-004	1.073418e+002
2.022770e+002	2.870800e+001	3.440977e-004	1.073936e+002
2.023700e+002	2.880100e+001	3.448132e-004	1.074508e+002
2.024630e+002	2.889400e+001	3.455034e-004	1.075097e+002
2.025550e+002	2.898600e+001	3.462101e-004	1.075649e+002
2.026480e+002	2.907900e+001	3.469244e-004	1.076241e+002
2.027440e+002	2.917500e+001	3.476464e-004	1.076875e+002
2.028370e+002	2.926800e+001	3.483742e-004	1.077592e+002
2.029340e+002	2.936500e+001	3.490960e-004	1.078276e+002
2.030280e+002	2.945900e+001	3.497828e-004	1.079011e+002
2.031200e+002	2.955100e+001	3.504040e-004	1.079698e+002
2.032130e+002	2.964400e+001	3.510571e-004	1.080456e+002
2.033060e+002	2.973700e+001	3.516764e-004	1.081244e+002
2.034020e+002	2.983300e+001	3.523077e-004	1.081978e+002
2.034960e+002	2.992700e+001	3.529517e-004	1.082717e+002
2.035920e+002	3.002300e+001	3.535916e-004	1.083505e+002
2.036910e+002	3.012200e+001	3.541956e-004	1.084351e+002
2.037830e+002	3.021400e+001	3.547363e-004	1.085101e+002
2.038800e+002	3.031100e+001	3.552959e-004	1.085966e+002
2.039760e+002	3.040700e+001	3.558853e-004	1.086831e+002
2.040690e+002	3.050000e+001	3.563719e-004	1.087591e+002
2.041630e+002	3.059400e+001	3.568911e-004	1.088443e+002
2.042650e+002	3.069600e+001	3.574243e-004	1.089319e+002
2.043630e+002	3.079400e+001	3.579492e-004	1.090229e+002
2.044570e+002	3.088800e+001	3.584659e-004	1.091053e+002
2.045520e+002	3.098300e+001	3.589062e-004	1.091959e+002
2.046480e+002	3.107900e+001	3.593584e-004	1.092791e+002
2.047430e+002	3.117400e+001	3.598207e-004	1.093690e+002
2.048360e+002	3.126700e+001	3.602855e-004	1.094550e+002
2.049310e+002	3.136200e+001	3.607109e-004	1.095488e+002
2.050230e+002	3.145400e+001	3.610938e-004	1.096343e+002
2.051180e+002	3.154900e+001	3.615242e-004	1.097233e+002
2.052090e+002	3.164000e+001	3.619134e-004	1.098112e+002
2.053050e+002	3.173600e+001	3.622629e-004	1.099037e+002
