TimeAll	TimeExperiment	R	Theta
8.498800e+001	7.999992e-002	1.255587e-004	1.073139e+002
8.508600e+001	1.780000e-001	1.256222e-004	1.072202e+002
8.517700e+001	2.690001e-001	1.256624e-004	1.071393e+002
8.526700e+001	3.590000e-001	1.257409e-004	1.070376e+002
8.536000e+001	4.519999e-001	1.258069e-004	1.069466e+002
8.545400e+001	5.460000e-001	1.258645e-004	1.068422e+002
8.555700e+001	6.489999e-001	1.259282e-004	1.067212e+002
8.565000e+001	7.419999e-001	1.259901e-004	1.066116e+002
8.574000e+001	8.320000e-001	1.260709e-004	1.065145e+002
8.583600e+001	9.280000e-001	1.261134e-004	1.063903e+002
8.593200e+001	1.024000e+000	1.261613e-004	1.062637e+002
8.602500e+001	1.117000e+000	1.262096e-004	1.061566e+002
8.611800e+001	1.210000e+000	1.262571e-004	1.060342e+002
8.621700e+001	1.309000e+000	1.263160e-004	1.059006e+002
8.631300e+001	1.405000e+000	1.263692e-004	1.057666e+002
8.640400e+001	1.496000e+000	1.264224e-004	1.056550e+002
8.649800e+001	1.590000e+000	1.264164e-004	1.055262e+002
8.659200e+001	1.684000e+000	1.264672e-004	1.053973e+002
8.668500e+001	1.777000e+000	1.265010e-004	1.052611e+002
8.677700e+001	1.869000e+000	1.265119e-004	1.051210e+002
8.686600e+001	1.958000e+000	1.265452e-004	1.049939e+002
8.696300e+001	2.055000e+000	1.265484e-004	1.048508e+002
8.705800e+001	2.150000e+000	1.265568e-004	1.047020e+002
8.715600e+001	2.248000e+000	1.265540e-004	1.045494e+002
8.724800e+001	2.340000e+000	1.265737e-004	1.044088e+002
8.733800e+001	2.430000e+000	1.265493e-004	1.042565e+002
8.743800e+001	2.530000e+000	1.265297e-004	1.040915e+002
8.753000e+001	2.622000e+000	1.265089e-004	1.039353e+002
8.762200e+001	2.714000e+000	1.265137e-004	1.037851e+002
8.771700e+001	2.809000e+000	1.264522e-004	1.036117e+002
8.780900e+001	2.901000e+000	1.264291e-004	1.034561e+002
8.790500e+001	2.997000e+000	1.263723e-004	1.032890e+002
8.799600e+001	3.088000e+000	1.262895e-004	1.031221e+002
8.808600e+001	3.178000e+000	1.262510e-004	1.029689e+002
8.817500e+001	3.267000e+000	1.261565e-004	1.028024e+002
8.826800e+001	3.360000e+000	1.260842e-004	1.026309e+002
8.837300e+001	3.465000e+000	1.259778e-004	1.024295e+002
8.846600e+001	3.558000e+000	1.258681e-004	1.022487e+002
8.855700e+001	3.649000e+000	1.257660e-004	1.020779e+002
8.865400e+001	3.746000e+000	1.256472e-004	1.018875e+002
8.874700e+001	3.839000e+000	1.254801e-004	1.017022e+002
8.884000e+001	3.932000e+000	1.253334e-004	1.015211e+002
8.893600e+001	4.028000e+000	1.251412e-004	1.013154e+002
8.903100e+001	4.123000e+000	1.249491e-004	1.011245e+002
8.912600e+001	4.218000e+000	1.247634e-004	1.009344e+002
8.921800e+001	4.310000e+000	1.245553e-004	1.007515e+002
8.930800e+001	4.400000e+000	1.243614e-004	1.005576e+002
8.940100e+001	4.493000e+000	1.241530e-004	1.003729e+002
8.949600e+001	4.588000e+000	1.238900e-004	1.001820e+002
8.959100e+001	4.683000e+000	1.236546e-004	9.999890e+001
8.968200e+001	4.774000e+000	1.234208e-004	9.981578e+001
8.977400e+001	4.866000e+000	1.231547e-004	9.962573e+001
8.987000e+001	4.962000e+000	1.228800e-004	9.943826e+001
8.996000e+001	5.052000e+000	1.225899e-004	9.926675e+001
9.005300e+001	5.145000e+000	1.222908e-004	9.908624e+001
9.014700e+001	5.239000e+000	1.219732e-004	9.891470e+001
9.024400e+001	5.336000e+000	1.216237e-004	9.872974e+001
9.033700e+001	5.429000e+000	1.212901e-004	9.856392e+001
9.042700e+001	5.519000e+000	1.209755e-004	9.839423e+001
9.051700e+001	5.609000e+000	1.206362e-004	9.823301e+001
9.061100e+001	5.703000e+000	1.202696e-004	9.805953e+001
9.070400e+001	5.796000e+000	1.199490e-004	9.790944e+001
9.079700e+001	5.889000e+000	1.195542e-004	9.776158e+001
9.088700e+001	5.979000e+000	1.192034e-004	9.760863e+001
9.097800e+001	6.070000e+000	1.188181e-004	9.746140e+001
9.106700e+001	6.159000e+000	1.184538e-004	9.733620e+001
9.115800e+001	6.250000e+000	1.180668e-004	9.720280e+001
9.125000e+001	6.342000e+000	1.176744e-004	9.707508e+001
9.134200e+001	6.434000e+000	1.172786e-004	9.694592e+001
9.143100e+001	6.523000e+000	1.168562e-004	9.683282e+001
9.152400e+001	6.616000e+000	1.164530e-004	9.671893e+001
9.161500e+001	6.707000e+000	1.160315e-004	9.660645e+001
9.170900e+001	6.801000e+000	1.156087e-004	9.648457e+001
9.180000e+001	6.892000e+000	1.151738e-004	9.640239e+001
9.189300e+001	6.985000e+000	1.147149e-004	9.629757e+001
9.198600e+001	7.078000e+000	1.143228e-004	9.620621e+001
9.207700e+001	7.169000e+000	1.138929e-004	9.613129e+001
9.217100e+001	7.263000e+000	1.134321e-004	9.605495e+001
9.226200e+001	7.354000e+000	1.130175e-004	9.598570e+001
9.235400e+001	7.446000e+000	1.126230e-004	9.592838e+001
9.244600e+001	7.538000e+000	1.122004e-004	9.586208e+001
9.253800e+001	7.630000e+000	1.117570e-004	9.580925e+001
9.262600e+001	7.718000e+000	1.113665e-004	9.576634e+001
9.271400e+001	7.806000e+000	1.109302e-004	9.571424e+001
9.280600e+001	7.898000e+000	1.104903e-004	9.569269e+001
9.290000e+001	7.992000e+000	1.100741e-004	9.566482e+001
9.299200e+001	8.084000e+000	1.096166e-004	9.562676e+001
9.308300e+001	8.175000e+000	1.092291e-004	9.560074e+001
9.317300e+001	8.265000e+000	1.087814e-004	9.559746e+001
9.326300e+001	8.355000e+000	1.083927e-004	9.559415e+001
9.335800e+001	8.450000e+000	1.079478e-004	9.557796e+001
9.344900e+001	8.541000e+000	1.075076e-004	9.557911e+001
9.354200e+001	8.634000e+000	1.071242e-004	9.558293e+001
9.363100e+001	8.723000e+000	1.067261e-004	9.558905e+001
9.372300e+001	8.815000e+000	1.063516e-004	9.560413e+001
9.381200e+001	8.904000e+000	1.059403e-004	9.562017e+001
9.390500e+001	8.997000e+000	1.055529e-004	9.563625e+001
9.399500e+001	9.087000e+000	1.051850e-004	9.567077e+001
9.408600e+001	9.178000e+000	1.048322e-004	9.570523e+001
9.417600e+001	9.268000e+000	1.044154e-004	9.574277e+001
9.427100e+001	9.363000e+000	1.040443e-004	9.579572e+001
9.436200e+001	9.454000e+000	1.036594e-004	9.584226e+001
9.445500e+001	9.547000e+000	1.032812e-004	9.589826e+001
9.454500e+001	9.637000e+000	1.029382e-004	9.594650e+001
9.463600e+001	9.728000e+000	1.025776e-004	9.602091e+001
9.472700e+001	9.819000e+000	1.022107e-004	9.607961e+001
9.481700e+001	9.909000e+000	1.018563e-004	9.615044e+001
9.490800e+001	1.000000e+001	1.015217e-004	9.622984e+001
9.500200e+001	1.009400e+001	1.011901e-004	9.630314e+001
9.509600e+001	1.018800e+001	1.008495e-004	9.637128e+001
9.518400e+001	1.027600e+001	1.005511e-004	9.646548e+001
9.527400e+001	1.036600e+001	1.002292e-004	9.654075e+001
9.536300e+001	1.045500e+001	9.993836e-005	9.662581e+001
9.545200e+001	1.054400e+001	9.963896e-005	9.671738e+001
9.554500e+001	1.063700e+001	9.937870e-005	9.680733e+001
9.563400e+001	1.072600e+001	9.909532e-005	9.689556e+001
9.572300e+001	1.081500e+001	9.884148e-005	9.699306e+001
9.581200e+001	1.090400e+001	9.858437e-005	9.708360e+001
9.590200e+001	1.099400e+001	9.833154e-005	9.717513e+001
9.599800e+001	1.109000e+001	9.807893e-005	9.729266e+001
9.609000e+001	1.118200e+001	9.781781e-005	9.739806e+001
9.618300e+001	1.127500e+001	9.759054e-005	9.749967e+001
9.627500e+001	1.136700e+001	9.735451e-005	9.760924e+001
9.636500e+001	1.145700e+001	9.716363e-005	9.772134e+001
9.646100e+001	1.155300e+001	9.691559e-005	9.783092e+001
9.654900e+001	1.164100e+001	9.671509e-005	9.793687e+001
9.664000e+001	1.173200e+001	9.650208e-005	9.805075e+001
9.673200e+001	1.182400e+001	9.630135e-005	9.815210e+001
9.682100e+001	1.191300e+001	9.611266e-005	9.826935e+001
9.691100e+001	1.200300e+001	9.593133e-005	9.838825e+001
9.700000e+001	1.209200e+001	9.573442e-005	9.849671e+001
