TimeAll	TimeExperiment	R	Theta
1.923790e+002	8.299994e-002	3.613614e-004	1.186864e+002
1.925100e+002	2.140000e-001	3.614766e-004	1.186699e+002
1.926200e+002	3.239999e-001	3.616489e-004	1.186549e+002
1.927130e+002	4.169998e-001	3.617772e-004	1.186427e+002
1.928070e+002	5.109999e-001	3.618686e-004	1.186294e+002
1.929000e+002	6.039999e-001	3.619955e-004	1.186128e+002
1.930100e+002	7.140000e-001	3.621520e-004	1.186012e+002
1.931030e+002	8.069999e-001	3.622634e-004	1.185821e+002
1.932120e+002	9.159999e-001	3.624232e-004	1.185651e+002
1.933060e+002	1.010000e+000	3.625492e-004	1.185473e+002
1.934150e+002	1.119000e+000	3.627076e-004	1.185370e+002
1.935240e+002	1.228000e+000	3.628711e-004	1.185177e+002
1.936180e+002	1.322000e+000	3.630074e-004	1.185024e+002
1.937120e+002	1.416000e+000	3.631416e-004	1.184879e+002
1.938050e+002	1.509000e+000	3.632465e-004	1.184740e+002
1.939140e+002	1.618000e+000	3.633956e-004	1.184550e+002
1.940240e+002	1.728000e+000	3.635277e-004	1.184349e+002
1.941170e+002	1.821000e+000	3.637155e-004	1.184233e+002
1.942110e+002	1.915000e+000	3.638488e-004	1.184044e+002
1.943200e+002	2.024000e+000	3.639333e-004	1.183902e+002
1.944290e+002	2.133000e+000	3.641190e-004	1.183707e+002
1.945380e+002	2.242000e+000	3.642431e-004	1.183523e+002
1.946480e+002	2.352000e+000	3.644222e-004	1.183341e+002
1.947570e+002	2.461000e+000	3.645289e-004	1.183126e+002
1.948500e+002	2.554000e+000	3.647354e-004	1.182944e+002
1.949600e+002	2.664000e+000	3.648371e-004	1.182761e+002
1.950530e+002	2.757000e+000	3.650386e-004	1.182567e+002
1.951620e+002	2.866000e+000	3.651721e-004	1.182380e+002
1.952560e+002	2.960000e+000	3.653568e-004	1.182185e+002
1.953650e+002	3.069000e+000	3.655194e-004	1.181946e+002
1.954590e+002	3.163000e+000	3.656931e-004	1.181768e+002
1.955520e+002	3.256000e+000	3.658295e-004	1.181570e+002
1.956460e+002	3.350000e+000	3.659615e-004	1.181398e+002
1.957400e+002	3.444000e+000	3.661183e-004	1.181206e+002
1.958330e+002	3.537000e+000	3.662658e-004	1.180977e+002
1.959270e+002	3.631000e+000	3.663855e-004	1.180809e+002
1.960200e+002	3.724000e+000	3.665596e-004	1.180597e+002
1.961140e+002	3.818000e+000	3.667401e-004	1.180402e+002
1.962080e+002	3.912000e+000	3.668605e-004	1.180197e+002
1.963010e+002	4.005000e+000	3.670100e-004	1.180012e+002
1.964100e+002	4.114000e+000	3.671607e-004	1.179758e+002
1.965200e+002	4.224000e+000	3.673200e-004	1.179583e+002
1.966290e+002	4.333000e+000	3.675034e-004	1.179290e+002
1.967220e+002	4.426000e+000	3.676727e-004	1.179112e+002
1.968160e+002	4.520000e+000	3.678257e-004	1.178901e+002
1.969100e+002	4.614000e+000	3.679608e-004	1.178730e+002
1.970190e+002	4.723000e+000	3.680719e-004	1.178566e+002
1.971120e+002	4.816000e+000	3.682591e-004	1.178321e+002
1.972210e+002	4.925000e+000	3.683601e-004	1.178139e+002
1.973310e+002	5.035000e+000	3.685555e-004	1.177900e+002
1.974400e+002	5.144000e+000	3.687066e-004	1.177667e+002
1.975490e+002	5.253000e+000	3.689077e-004	1.177347e+002
1.976580e+002	5.362000e+000	3.690761e-004	1.177140e+002
1.977520e+002	5.456000e+000	3.692753e-004	1.176836e+002
1.978450e+002	5.549000e+000	3.694242e-004	1.176627e+002
1.979550e+002	5.659000e+000	3.695785e-004	1.176357e+002
1.980640e+002	5.768000e+000	3.697640e-004	1.176114e+002
1.981570e+002	5.861000e+000	3.699609e-004	1.175824e+002
1.982510e+002	5.955000e+000	3.700896e-004	1.175630e+002
1.983450e+002	6.049000e+000	3.702097e-004	1.175435e+002
1.984540e+002	6.158000e+000	3.703676e-004	1.175193e+002
1.985470e+002	6.251000e+000	3.705262e-004	1.174962e+002
1.986410e+002	6.345000e+000	3.706798e-004	1.174729e+002
1.987500e+002	6.454000e+000	3.708811e-004	1.174436e+002
1.988590e+002	6.563000e+000	3.710374e-004	1.174182e+002
1.989530e+002	6.657000e+000	3.712589e-004	1.173897e+002
1.990620e+002	6.766000e+000	3.714212e-004	1.173639e+002
1.991560e+002	6.860000e+000	3.716041e-004	1.173317e+002
1.992490e+002	6.953000e+000	3.717436e-004	1.173065e+002
1.993430e+002	7.047000e+000	3.719157e-004	1.172785e+002
1.994370e+002	7.141000e+000	3.720971e-004	1.172508e+002
1.995300e+002	7.234000e+000	3.722785e-004	1.172213e+002
1.996390e+002	7.343000e+000	3.724414e-004	1.171897e+002
1.997490e+002	7.453000e+000	3.726659e-004	1.171564e+002
1.998580e+002	7.562000e+000	3.728324e-004	1.171216e+002
1.999510e+002	7.655000e+000	3.730425e-004	1.170952e+002
2.000450e+002	7.749000e+000	3.731936e-004	1.170666e+002
2.001540e+002	7.858000e+000	3.734054e-004	1.170290e+002
2.002480e+002	7.952000e+000	3.735689e-004	1.169981e+002
2.003410e+002	8.045000e+000	3.737612e-004	1.169642e+002
2.004350e+002	8.139000e+000	3.739719e-004	1.169338e+002
2.005290e+002	8.233000e+000	3.741345e-004	1.168996e+002
2.006220e+002	8.326000e+000	3.743024e-004	1.168696e+002
2.007310e+002	8.435000e+000	3.745209e-004	1.168363e+002
2.008250e+002	8.529000e+000	3.747130e-004	1.167962e+002
2.009190e+002	8.623000e+000	3.749041e-004	1.167573e+002
2.010120e+002	8.716000e+000	3.750913e-004	1.167285e+002
2.011060e+002	8.810000e+000	3.752472e-004	1.166956e+002
2.011990e+002	8.903000e+000	3.754421e-004	1.166605e+002
2.013090e+002	9.013000e+000	3.756561e-004	1.166265e+002
2.014020e+002	9.106000e+000	3.758692e-004	1.165822e+002
2.014960e+002	9.200000e+000	3.760224e-004	1.165478e+002
2.016050e+002	9.309000e+000	3.762026e-004	1.165127e+002
2.017140e+002	9.418000e+000	3.764469e-004	1.164660e+002
2.018230e+002	9.527000e+000	3.766561e-004	1.164267e+002
2.019330e+002	9.637000e+000	3.768549e-004	1.163817e+002
2.020420e+002	9.746000e+000	3.770717e-004	1.163387e+002
2.021510e+002	9.855000e+000	3.772948e-004	1.162936e+002
2.022440e+002	9.948000e+000	3.775001e-004	1.162470e+002
2.023380e+002	1.004200e+001	3.776377e-004	1.162122e+002
2.024470e+002	1.015100e+001	3.778633e-004	1.161693e+002
2.025410e+002	1.024500e+001	3.780407e-004	1.161263e+002
2.026340e+002	1.033800e+001	3.782266e-004	1.160874e+002
2.027280e+002	1.043200e+001	3.783879e-004	1.160464e+002
2.028370e+002	1.054100e+001	3.785515e-004	1.160136e+002
2.029310e+002	1.063500e+001	3.787997e-004	1.159625e+002
2.030240e+002	1.072800e+001	3.789394e-004	1.159265e+002
2.031180e+002	1.082200e+001	3.791315e-004	1.158799e+002
2.032120e+002	1.091600e+001	3.793367e-004	1.158340e+002
2.033050e+002	1.100900e+001	3.794854e-004	1.157942e+002
2.034140e+002	1.111800e+001	3.796882e-004	1.157493e+002
2.035080e+002	1.121200e+001	3.798925e-004	1.156994e+002
2.036020e+002	1.130600e+001	3.800616e-004	1.156624e+002
2.036950e+002	1.139900e+001	3.802597e-004	1.156173e+002
2.037890e+002	1.149300e+001	3.804139e-004	1.155693e+002
2.038980e+002	1.160200e+001	3.806204e-004	1.155214e+002
2.040070e+002	1.171100e+001	3.808817e-004	1.154617e+002
2.041160e+002	1.182000e+001	3.810381e-004	1.154107e+002
2.042260e+002	1.193000e+001	3.813046e-004	1.153479e+002
2.043350e+002	1.203900e+001	3.815261e-004	1.152891e+002
2.044280e+002	1.213200e+001	3.817687e-004	1.152211e+002
2.045220e+002	1.222600e+001	3.819845e-004	1.151639e+002
2.046160e+002	1.232000e+001	3.822099e-004	1.151072e+002
2.047250e+002	1.242900e+001	3.824175e-004	1.150456e+002
2.048180e+002	1.252200e+001	3.826240e-004	1.149858e+002
2.049120e+002	1.261600e+001	3.828487e-004	1.149272e+002
2.050060e+002	1.271000e+001	3.830185e-004	1.148661e+002
2.051150e+002	1.281900e+001	3.832099e-004	1.148104e+002
2.052240e+002	1.292800e+001	3.834215e-004	1.147399e+002
2.053180e+002	1.302200e+001	3.836443e-004	1.146772e+002
2.054270e+002	1.313100e+001	3.838503e-004	1.146212e+002
2.055200e+002	1.322400e+001	3.839768e-004	1.145658e+002
2.056140e+002	1.331800e+001	3.841541e-004	1.145088e+002
2.057230e+002	1.342700e+001	3.843108e-004	1.144504e+002
2.058320e+002	1.353600e+001	3.845127e-004	1.143807e+002
2.059260e+002	1.363000e+001	3.847170e-004	1.143126e+002
2.060200e+002	1.372400e+001	3.848685e-004	1.142497e+002
2.061130e+002	1.381700e+001	3.850797e-004	1.141870e+002
2.062220e+002	1.392600e+001	3.852263e-004	1.141192e+002
2.063160e+002	1.402000e+001	3.854557e-004	1.140423e+002
2.064250e+002	1.412900e+001	3.856476e-004	1.139725e+002
2.065190e+002	1.422300e+001	3.858357e-004	1.138944e+002
2.066120e+002	1.431600e+001	3.860139e-004	1.138281e+002
2.067220e+002	1.442600e+001	3.861828e-004	1.137564e+002
2.068150e+002	1.451900e+001	3.864039e-004	1.136740e+002
2.069090e+002	1.461300e+001	3.865300e-004	1.135999e+002
2.070020e+002	1.470600e+001	3.866917e-004	1.135268e+002
2.071120e+002	1.481600e+001	3.868861e-004	1.134534e+002
2.072050e+002	1.490900e+001	3.870432e-004	1.133752e+002
2.073140e+002	1.501800e+001	3.871872e-004	1.133009e+002
2.074080e+002	1.511200e+001	3.873661e-004	1.132224e+002
2.075010e+002	1.520500e+001	3.874984e-004	1.131591e+002
2.075950e+002	1.529900e+001	3.876698e-004	1.130828e+002
2.077040e+002	1.540800e+001	3.877810e-004	1.130062e+002
2.078130e+002	1.551700e+001	3.880051e-004	1.129185e+002
2.079230e+002	1.562700e+001	3.881163e-004	1.128341e+002
2.080160e+002	1.572000e+001	3.882666e-004	1.127519e+002
2.081250e+002	1.582900e+001	3.883903e-004	1.126683e+002
2.082190e+002	1.592300e+001	3.885273e-004	1.125776e+002
2.083130e+002	1.601700e+001	3.886663e-004	1.124993e+002
2.084220e+002	1.612600e+001	3.887819e-004	1.124207e+002
2.085310e+002	1.623500e+001	3.889199e-004	1.123364e+002
2.086400e+002	1.634400e+001	3.890103e-004	1.122527e+002
2.087490e+002	1.645300e+001	3.891356e-004	1.121536e+002
2.088430e+002	1.654700e+001	3.892384e-004	1.120652e+002
2.089370e+002	1.664100e+001	3.893624e-004	1.119852e+002
2.090460e+002	1.675000e+001	3.894675e-004	1.119007e+002
2.091390e+002	1.684300e+001	3.895360e-004	1.118070e+002
2.092330e+002	1.693700e+001	3.896127e-004	1.117170e+002
2.093270e+002	1.703100e+001	3.896892e-004	1.116226e+002
2.094200e+002	1.712400e+001	3.897902e-004	1.115257e+002
2.095290e+002	1.723300e+001	3.898499e-004	1.114225e+002
2.096230e+002	1.732700e+001	3.899322e-004	1.113107e+002
2.097170e+002	1.742100e+001	3.900238e-004	1.112116e+002
2.098100e+002	1.751400e+001	3.900711e-004	1.111188e+002
2.099190e+002	1.762300e+001	3.901306e-004	1.110231e+002
2.100130e+002	1.771700e+001	3.902143e-004	1.109192e+002
2.100800e+002	1.778400e+001	3.902601e-004	1.108165e+002
2.101760e+002	1.788000e+001	3.902730e-004	1.107233e+002
2.102760e+002	1.798000e+001	3.903124e-004	1.106160e+002
2.103730e+002	1.807700e+001	3.903479e-004	1.105127e+002
2.104670e+002	1.817100e+001	3.903801e-004	1.104112e+002
2.105590e+002	1.826300e+001	3.903777e-004	1.103158e+002
2.106540e+002	1.835800e+001	3.903813e-004	1.102144e+002
2.107500e+002	1.845400e+001	3.903736e-004	1.101051e+002
2.108430e+002	1.854700e+001	3.903626e-004	1.100090e+002
2.109370e+002	1.864100e+001	3.903654e-004	1.098995e+002
2.110320e+002	1.873600e+001	3.903314e-004	1.097924e+002
2.111640e+002	1.886800e+001	3.902855e-004	1.096755e+002
2.112570e+002	1.896100e+001	3.902480e-004	1.095694e+002
2.113230e+002	1.902700e+001	3.902113e-004	1.094639e+002
2.114160e+002	1.912000e+001	3.901525e-004	1.093577e+002
2.115110e+002	1.921500e+001	3.900558e-004	1.092457e+002
2.116040e+002	1.930800e+001	3.899947e-004	1.091354e+002
2.116960e+002	1.940000e+001	3.899150e-004	1.090233e+002
2.117910e+002	1.949500e+001	3.897964e-004	1.089098e+002
2.118840e+002	1.958800e+001	3.897106e-004	1.087957e+002
2.119780e+002	1.968200e+001	3.895700e-004	1.086827e+002
2.120700e+002	1.977400e+001	3.894178e-004	1.085630e+002
2.121640e+002	1.986800e+001	3.893088e-004	1.084418e+002
2.122580e+002	1.996200e+001	3.891155e-004	1.083241e+002
2.123510e+002	2.005500e+001	3.889635e-004	1.082129e+002
2.124440e+002	2.014800e+001	3.888498e-004	1.081184e+002
2.125390e+002	2.024300e+001	3.886778e-004	1.080214e+002
2.126340e+002	2.033800e+001	3.884861e-004	1.079204e+002
2.127280e+002	2.043200e+001	3.882941e-004	1.078033e+002
2.128220e+002	2.052600e+001	3.881292e-004	1.076856e+002
2.129160e+002	2.062000e+001	3.878777e-004	1.075668e+002
2.130110e+002	2.071500e+001	3.876448e-004	1.074407e+002
2.131100e+002	2.081400e+001	3.874043e-004	1.073073e+002
2.132040e+002	2.090800e+001	3.871360e-004	1.071825e+002
2.133350e+002	2.103900e+001	3.868293e-004	1.070432e+002
2.134440e+002	2.114800e+001	3.865143e-004	1.069067e+002
2.135380e+002	2.124200e+001	3.861490e-004	1.067549e+002
2.136320e+002	2.133600e+001	3.858246e-004	1.066217e+002
2.137410e+002	2.144500e+001	3.854564e-004	1.064846e+002
2.138340e+002	2.153800e+001	3.850434e-004	1.063324e+002
2.139440e+002	2.164800e+001	3.846458e-004	1.061918e+002
2.140370e+002	2.174100e+001	3.841885e-004	1.060426e+002
2.141310e+002	2.183500e+001	3.838072e-004	1.059189e+002
2.142400e+002	2.194400e+001	3.833342e-004	1.057770e+002
2.143340e+002	2.203800e+001	3.828222e-004	1.056237e+002
2.144430e+002	2.214700e+001	3.823649e-004	1.054909e+002
2.145360e+002	2.224000e+001	3.818066e-004	1.053360e+002
2.146460e+002	2.235000e+001	3.812820e-004	1.051987e+002
2.147390e+002	2.244300e+001	3.806541e-004	1.050439e+002
2.148330e+002	2.253700e+001	3.801418e-004	1.049136e+002
2.149260e+002	2.263000e+001	3.795898e-004	1.047858e+002
2.150200e+002	2.272400e+001	3.790146e-004	1.046487e+002
2.151140e+002	2.281800e+001	3.784412e-004	1.045151e+002
2.152070e+002	2.291100e+001	3.778860e-004	1.043962e+002
2.153160e+002	2.302000e+001	3.772889e-004	1.042706e+002
2.154100e+002	2.311400e+001	3.767687e-004	1.041576e+002
2.155040e+002	2.320800e+001	3.762697e-004	1.040647e+002
2.156130e+002	2.331700e+001	3.757384e-004	1.039670e+002
2.157060e+002	2.341000e+001	3.750564e-004	1.038419e+002
2.158000e+002	2.350400e+001	3.744070e-004	1.037173e+002
2.158930e+002	2.359700e+001	3.737824e-004	1.036018e+002
2.159870e+002	2.369100e+001	3.730689e-004	1.034767e+002
2.160960e+002	2.380000e+001	3.723285e-004	1.033521e+002
2.161900e+002	2.389400e+001	3.715061e-004	1.032172e+002
2.162830e+002	2.398700e+001	3.707205e-004	1.030957e+002
2.163930e+002	2.409700e+001	3.699593e-004	1.029784e+002
2.165020e+002	2.420600e+001	3.690224e-004	1.028351e+002
2.166110e+002	2.431500e+001	3.680426e-004	1.026967e+002
2.167200e+002	2.442400e+001	3.670663e-004	1.025625e+002
2.168140e+002	2.451800e+001	3.661102e-004	1.024389e+002
2.169230e+002	2.462700e+001	3.652433e-004	1.023252e+002
2.170320e+002	2.473600e+001	3.641421e-004	1.021903e+002
2.171410e+002	2.484500e+001	3.631006e-004	1.020641e+002
2.172350e+002	2.493900e+001	3.620656e-004	1.019517e+002
2.173440e+002	2.504800e+001	3.610537e-004	1.018374e+002
2.174380e+002	2.514200e+001	3.600400e-004	1.017330e+002
2.175310e+002	2.523500e+001	3.591290e-004	1.016380e+002
2.176250e+002	2.532900e+001	3.581315e-004	1.015437e+002
2.177190e+002	2.542300e+001	3.571177e-004	1.014485e+002
2.178120e+002	2.551600e+001	3.561628e-004	1.013613e+002
2.179210e+002	2.562500e+001	3.551556e-004	1.012681e+002
2.180150e+002	2.571900e+001	3.540063e-004	1.011756e+002
2.181240e+002	2.582800e+001	3.529406e-004	1.010894e+002
2.182330e+002	2.593700e+001	3.517671e-004	1.009962e+002
2.183430e+002	2.604700e+001	3.505983e-004	1.009126e+002
2.184360e+002	2.614000e+001	3.494093e-004	1.008335e+002
2.185300e+002	2.623400e+001	3.484284e-004	1.007667e+002
2.186230e+002	2.632700e+001	3.473537e-004	1.007008e+002
2.187330e+002	2.643700e+001	3.462588e-004	1.006345e+002
2.188260e+002	2.653000e+001	3.451386e-004	1.005746e+002
2.189200e+002	2.662400e+001	3.440759e-004	1.005179e+002
2.190290e+002	2.673300e+001	3.429705e-004	1.004616e+002
2.191380e+002	2.684200e+001	3.417730e-004	1.004088e+002
2.192320e+002	2.693600e+001	3.406338e-004	1.003586e+002
2.193250e+002	2.702900e+001	3.396025e-004	1.003179e+002
2.194190e+002	2.712300e+001	3.385285e-004	1.002792e+002
2.195280e+002	2.723200e+001	3.373966e-004	1.002420e+002
2.196220e+002	2.732600e+001	3.363070e-004	1.002089e+002
2.197150e+002	2.741900e+001	3.352854e-004	1.001812e+002
2.198090e+002	2.751300e+001	3.342673e-004	1.001559e+002
2.199180e+002	2.762200e+001	3.331849e-004	1.001312e+002
2.200120e+002	2.771600e+001	3.320303e-004	1.001111e+002
2.201050e+002	2.780900e+001	3.309663e-004	1.000982e+002
2.201990e+002	2.790300e+001	3.299529e-004	1.000856e+002
2.203080e+002	2.801200e+001	3.287941e-004	1.000740e+002
2.204020e+002	2.810600e+001	3.277029e-004	1.000650e+002
2.204950e+002	2.819900e+001	3.266846e-004	1.000632e+002
2.205890e+002	2.829300e+001	3.257089e-004	1.000675e+002
2.206980e+002	2.840200e+001	3.246464e-004	1.000713e+002
2.208070e+002	2.851100e+001	3.234976e-004	1.000860e+002
2.209010e+002	2.860500e+001	3.223249e-004	1.000907e+002
2.209940e+002	2.869800e+001	3.213640e-004	1.001049e+002
2.210880e+002	2.879200e+001	3.204143e-004	1.001254e+002
2.211820e+002	2.888600e+001	3.193840e-004	1.001422e+002
2.212750e+002	2.897900e+001	3.184229e-004	1.001635e+002
2.213840e+002	2.908800e+001	3.174208e-004	1.001943e+002
2.214780e+002	2.918200e+001	3.163427e-004	1.002291e+002
2.215720e+002	2.927600e+001	3.154238e-004	1.002604e+002
2.216650e+002	2.936900e+001	3.144823e-004	1.002941e+002
2.217590e+002	2.946300e+001	3.135097e-004	1.003318e+002
2.218520e+002	2.955600e+001	3.125977e-004	1.003739e+002
2.219620e+002	2.966600e+001	3.116686e-004	1.004159e+002
2.220710e+002	2.977500e+001	3.105377e-004	1.004722e+002
2.221800e+002	2.988400e+001	3.095570e-004	1.005311e+002
2.222740e+002	2.997800e+001	3.085497e-004	1.005901e+002
2.223670e+002	3.007100e+001	3.077145e-004	1.006469e+002
2.224610e+002	3.016500e+001	3.068020e-004	1.007020e+002
2.225700e+002	3.027400e+001	3.059281e-004	1.007628e+002
2.226640e+002	3.036800e+001	3.050174e-004	1.008370e+002
2.227570e+002	3.046100e+001	3.041822e-004	1.009012e+002
2.228660e+002	3.057000e+001	3.033149e-004	1.009690e+002
2.229760e+002	3.068000e+001	3.024057e-004	1.010549e+002
2.230690e+002	3.077300e+001	3.015094e-004	1.011373e+002
2.231780e+002	3.088200e+001	3.007144e-004	1.012112e+002
2.232720e+002	3.097600e+001	2.998867e-004	1.012942e+002
2.233810e+002	3.108500e+001	2.991670e-004	1.013721e+002
2.234900e+002	3.119400e+001	2.983984e-004	1.014562e+002
2.235840e+002	3.128800e+001	2.976597e-004	1.015380e+002
2.236930e+002	3.139700e+001	2.969915e-004	1.016193e+002
2.237870e+002	3.149100e+001	2.962742e-004	1.017066e+002
2.238960e+002	3.160000e+001	2.956328e-004	1.017863e+002
2.239900e+002	3.169400e+001	2.949269e-004	1.018829e+002
2.240830e+002	3.178700e+001	2.942937e-004	1.019666e+002
2.241770e+002	3.188100e+001	2.936688e-004	1.020497e+002
2.242860e+002	3.199000e+001	2.930576e-004	1.021410e+002
2.243950e+002	3.209900e+001	2.923507e-004	1.022483e+002
2.245040e+002	3.220800e+001	2.916484e-004	1.023618e+002
2.245980e+002	3.230200e+001	2.909378e-004	1.024693e+002
2.247070e+002	3.241100e+001	2.903146e-004	1.025713e+002
2.248010e+002	3.250500e+001	2.896980e-004	1.026875e+002
2.249100e+002	3.261400e+001	2.890756e-004	1.027912e+002
2.250190e+002	3.272300e+001	2.884587e-004	1.029136e+002
2.251130e+002	3.281700e+001	2.878133e-004	1.030331e+002
2.252220e+002	3.292600e+001	2.872653e-004	1.031431e+002
2.253160e+002	3.302000e+001	2.866787e-004	1.032652e+002
2.254090e+002	3.311300e+001	2.861659e-004	1.033726e+002
2.255030e+002	3.320700e+001	2.857059e-004	1.034775e+002
2.256120e+002	3.331600e+001	2.851725e-004	1.035976e+002
2.257060e+002	3.341000e+001	2.846935e-004	1.037164e+002
2.257990e+002	3.350300e+001	2.842122e-004	1.038247e+002
2.258930e+002	3.359700e+001	2.838149e-004	1.039333e+002
2.259860e+002	3.369000e+001	2.834085e-004	1.040413e+002
2.260950e+002	3.379900e+001	2.829963e-004	1.041497e+002
2.261890e+002	3.389300e+001	2.825639e-004	1.042632e+002
2.262830e+002	3.398700e+001	2.821643e-004	1.043759e+002
2.263760e+002	3.408000e+001	2.817723e-004	1.044781e+002
2.264700e+002	3.417400e+001	2.814628e-004	1.045799e+002
2.265790e+002	3.428300e+001	2.811118e-004	1.046895e+002
2.266730e+002	3.437700e+001	2.807225e-004	1.048095e+002
2.267820e+002	3.448600e+001	2.804101e-004	1.049137e+002
2.268750e+002	3.457900e+001	2.800424e-004	1.050322e+002
2.269690e+002	3.467300e+001	2.797647e-004	1.051425e+002
2.270630e+002	3.476700e+001	2.794336e-004	1.052510e+002
2.271560e+002	3.486000e+001	2.791047e-004	1.053598e+002
2.272650e+002	3.496900e+001	2.788089e-004	1.054755e+002
2.273590e+002	3.506300e+001	2.785076e-004	1.055924e+002
2.274530e+002	3.515700e+001	2.782701e-004	1.056909e+002
2.275460e+002	3.525000e+001	2.780372e-004	1.058016e+002
2.276550e+002	3.535900e+001	2.777436e-004	1.059148e+002
