TimeAll	TimeExperiment	R	Theta
1.237410e+002	8.200002e-002	9.357085e-005	1.084813e+002
1.238730e+002	2.140002e-001	9.352668e-005	1.083927e+002
1.239820e+002	3.230002e-001	9.344761e-005	1.083096e+002
1.240910e+002	4.320002e-001	9.339351e-005	1.082184e+002
1.241850e+002	5.260000e-001	9.333604e-005	1.081500e+002
1.242940e+002	6.350000e-001	9.327111e-005	1.080632e+002
1.243880e+002	7.290001e-001	9.321065e-005	1.079814e+002
1.244970e+002	8.380001e-001	9.319375e-005	1.078904e+002
1.245910e+002	9.320002e-001	9.312683e-005	1.078121e+002
1.247000e+002	1.041000e+000	9.305560e-005	1.077278e+002
1.247930e+002	1.134000e+000	9.301644e-005	1.076434e+002
1.248870e+002	1.228000e+000	9.296527e-005	1.075604e+002
1.249810e+002	1.322000e+000	9.292809e-005	1.074826e+002
1.250900e+002	1.431000e+000	9.287844e-005	1.073907e+002
1.251990e+002	1.540000e+000	9.281877e-005	1.072957e+002
1.252930e+002	1.634000e+000	9.277787e-005	1.072077e+002
1.254020e+002	1.743000e+000	9.270830e-005	1.071044e+002
1.254950e+002	1.836000e+000	9.268703e-005	1.070083e+002
1.255890e+002	1.930000e+000	9.263415e-005	1.069173e+002
1.256980e+002	2.039000e+000	9.261116e-005	1.068136e+002
1.257920e+002	2.133000e+000	9.257066e-005	1.067138e+002
1.258850e+002	2.226000e+000	9.253297e-005	1.066079e+002
1.259790e+002	2.320000e+000	9.249915e-005	1.065227e+002
1.260730e+002	2.414000e+000	9.246146e-005	1.064090e+002
1.261660e+002	2.507000e+000	9.243724e-005	1.063085e+002
1.262750e+002	2.616000e+000	9.241720e-005	1.062071e+002
1.263850e+002	2.726000e+000	9.238101e-005	1.060835e+002
1.264940e+002	2.835000e+000	9.234357e-005	1.059551e+002
1.265870e+002	2.928000e+000	9.232914e-005	1.058428e+002
1.266810e+002	3.022000e+000	9.229275e-005	1.057351e+002
1.267900e+002	3.131000e+000	9.229332e-005	1.056204e+002
1.268990e+002	3.240000e+000	9.225684e-005	1.054821e+002
1.270090e+002	3.350000e+000	9.225248e-005	1.053568e+002
1.271020e+002	3.443000e+000	9.224490e-005	1.052215e+002
1.272110e+002	3.552000e+000	9.224040e-005	1.050909e+002
1.273210e+002	3.662000e+000	9.224808e-005	1.049590e+002
1.274140e+002	3.755000e+000	9.224434e-005	1.048192e+002
1.275230e+002	3.864000e+000	9.226426e-005	1.046858e+002
1.276170e+002	3.958000e+000	9.224594e-005	1.045610e+002
1.277260e+002	4.067000e+000	9.227607e-005	1.044317e+002
1.278350e+002	4.176000e+000	9.227129e-005	1.042789e+002
1.279450e+002	4.286000e+000	9.229638e-005	1.041264e+002
1.280380e+002	4.379000e+000	9.230979e-005	1.039903e+002
1.281320e+002	4.473000e+000	9.234878e-005	1.038466e+002
1.282410e+002	4.582000e+000	9.238417e-005	1.037216e+002
1.283350e+002	4.676000e+000	9.242725e-005	1.035676e+002
1.284440e+002	4.785000e+000	9.247359e-005	1.034318e+002
1.285530e+002	4.894000e+000	9.249502e-005	1.032714e+002
1.286470e+002	4.988000e+000	9.255688e-005	1.031070e+002
1.287560e+002	5.097000e+000	9.260874e-005	1.029783e+002
1.288650e+002	5.206000e+000	9.268707e-005	1.027950e+002
1.289590e+002	5.300000e+000	9.276282e-005	1.026563e+002
1.290520e+002	5.393000e+000	9.285038e-005	1.025007e+002
1.291460e+002	5.487000e+000	9.289909e-005	1.023690e+002
1.292550e+002	5.596000e+000	9.297869e-005	1.022073e+002
1.293490e+002	5.690000e+000	9.307835e-005	1.020532e+002
1.294420e+002	5.783000e+000	9.318467e-005	1.019217e+002
1.295360e+002	5.877000e+000	9.327935e-005	1.017747e+002
1.296450e+002	5.986000e+000	9.338542e-005	1.016329e+002
1.297380e+002	6.079000e+000	9.350345e-005	1.014744e+002
1.298320e+002	6.173000e+000	9.361801e-005	1.013423e+002
1.299260e+002	6.267000e+000	9.371817e-005	1.012057e+002
1.300190e+002	6.360000e+000	9.386004e-005	1.010553e+002
1.301280e+002	6.469000e+000	9.397770e-005	1.009401e+002
1.302220e+002	6.563000e+000	9.411661e-005	1.007667e+002
1.303310e+002	6.672000e+000	9.428132e-005	1.006311e+002
1.304250e+002	6.766000e+000	9.441196e-005	1.004779e+002
1.305340e+002	6.875000e+000	9.456024e-005	1.003477e+002
1.306430e+002	6.984000e+000	9.476172e-005	1.001798e+002
1.307370e+002	7.078000e+000	9.494041e-005	1.000214e+002
1.308300e+002	7.171000e+000	9.513028e-005	9.989274e+001
1.309240e+002	7.265000e+000	9.529592e-005	9.974789e+001
1.310180e+002	7.359000e+000	9.548997e-005	9.961057e+001
1.311270e+002	7.468000e+000	9.571598e-005	9.946997e+001
1.312200e+002	7.561000e+000	9.589397e-005	9.934235e+001
1.313300e+002	7.671000e+000	9.611189e-005	9.921777e+001
1.314230e+002	7.764000e+000	9.630556e-005	9.909212e+001
1.315320e+002	7.873000e+000	9.650098e-005	9.894915e+001
1.316260e+002	7.967000e+000	9.672732e-005	9.881813e+001
1.317350e+002	8.076000e+000	9.696724e-005	9.869728e+001
1.318290e+002	8.170000e+000	9.722613e-005	9.856006e+001
1.319380e+002	8.279000e+000	9.742391e-005	9.845208e+001
1.320320e+002	8.373000e+000	9.773423e-005	9.831919e+001
1.321410e+002	8.482000e+000	9.800313e-005	9.818117e+001
1.322500e+002	8.591000e+000	9.830872e-005	9.804462e+001
1.323590e+002	8.700000e+000	9.858915e-005	9.793510e+001
1.324680e+002	8.809000e+000	9.895967e-005	9.780240e+001
1.325620e+002	8.903000e+000	9.928762e-005	9.768005e+001
1.326710e+002	9.012000e+000	9.958539e-005	9.756105e+001
1.327800e+002	9.121000e+000	9.992070e-005	9.747044e+001
1.328740e+002	9.215000e+000	1.003211e-004	9.736598e+001
1.329830e+002	9.324000e+000	1.006607e-004	9.726853e+001
1.330770e+002	9.418000e+000	1.009986e-004	9.717275e+001
1.331700e+002	9.511000e+000	1.013377e-004	9.708126e+001
1.332640e+002	9.605000e+000	1.016928e-004	9.701055e+001
1.333730e+002	9.714000e+000	1.020396e-004	9.693262e+001
1.334670e+002	9.808000e+000	1.024666e-004	9.686416e+001
1.335600e+002	9.901000e+000	1.028048e-004	9.679301e+001
1.336540e+002	9.995000e+000	1.032230e-004	9.673475e+001
1.337630e+002	1.010400e+001	1.035525e-004	9.669950e+001
1.338570e+002	1.019800e+001	1.040109e-004	9.663740e+001
1.339660e+002	1.030700e+001	1.043700e-004	9.659744e+001
1.340600e+002	1.040100e+001	1.048130e-004	9.655747e+001
1.341690e+002	1.051000e+001	1.052448e-004	9.653085e+001
1.342620e+002	1.060300e+001	1.056583e-004	9.649022e+001
1.343720e+002	1.071300e+001	1.060762e-004	9.645983e+001
1.344650e+002	1.080600e+001	1.065221e-004	9.644085e+001
1.345590e+002	1.090000e+001	1.069295e-004	9.644425e+001
1.346520e+002	1.099300e+001	1.073107e-004	9.644704e+001
1.347620e+002	1.110300e+001	1.077220e-004	9.643238e+001
1.348550e+002	1.119600e+001	1.081744e-004	9.644445e+001
1.349490e+002	1.129000e+001	1.085592e-004	9.646129e+001
1.350420e+002	1.138300e+001	1.089709e-004	9.646738e+001
1.351520e+002	1.149300e+001	1.093949e-004	9.648543e+001
1.352610e+002	1.160200e+001	1.098757e-004	9.653194e+001
1.353540e+002	1.169500e+001	1.103469e-004	9.656875e+001
1.354480e+002	1.178900e+001	1.107417e-004	9.660890e+001
1.355420e+002	1.188300e+001	1.111508e-004	9.664806e+001
1.356510e+002	1.199200e+001	1.115790e-004	9.669025e+001
1.357440e+002	1.208500e+001	1.120072e-004	9.675524e+001
1.358540e+002	1.219500e+001	1.124209e-004	9.680836e+001
1.359470e+002	1.228800e+001	1.128965e-004	9.689901e+001
1.360560e+002	1.239700e+001	1.132937e-004	9.696823e+001
1.361500e+002	1.249100e+001	1.137462e-004	9.705470e+001
1.362430e+002	1.258400e+001	1.141254e-004	9.713552e+001
1.363370e+002	1.267800e+001	1.145490e-004	9.720554e+001
1.364460e+002	1.278700e+001	1.149317e-004	9.730005e+001
1.365400e+002	1.288100e+001	1.153833e-004	9.741057e+001
1.366330e+002	1.297400e+001	1.157512e-004	9.748974e+001
1.367270e+002	1.306800e+001	1.161319e-004	9.760820e+001
1.368360e+002	1.317700e+001	1.165170e-004	9.771653e+001
1.369300e+002	1.327100e+001	1.169350e-004	9.784318e+001
1.370230e+002	1.336400e+001	1.172936e-004	9.797163e+001
1.371170e+002	1.345800e+001	1.176508e-004	9.808459e+001
1.371820e+002	1.352300e+001	1.180031e-004	9.820377e+001
