TimeAll	TimeExperiment	R	Theta
9.896200e+001	8.000016e-002	9.496661e-005	1.099555e+002
9.909500e+001	2.130001e-001	9.486864e-005	1.098728e+002
9.918900e+001	3.070002e-001	9.479307e-005	1.097966e+002
9.929800e+001	4.160001e-001	9.470316e-005	1.097216e+002
9.940700e+001	5.250001e-001	9.460780e-005	1.096413e+002
9.950100e+001	6.190000e-001	9.453052e-005	1.095602e+002
9.959400e+001	7.120001e-001	9.444703e-005	1.094800e+002
9.968800e+001	8.060000e-001	9.436962e-005	1.094046e+002
9.979700e+001	9.150000e-001	9.427544e-005	1.092995e+002
9.989100e+001	1.009000e+000	9.418778e-005	1.092182e+002
9.998400e+001	1.102000e+000	9.410411e-005	1.091389e+002
1.000780e+002	1.196000e+000	9.402321e-005	1.090421e+002
1.001720e+002	1.290000e+000	9.393466e-005	1.089558e+002
1.002810e+002	1.399000e+000	9.384193e-005	1.088550e+002
1.003740e+002	1.492000e+000	9.375700e-005	1.087426e+002
1.004680e+002	1.586000e+000	9.367492e-005	1.086482e+002
1.005620e+002	1.680000e+000	9.360348e-005	1.085524e+002
1.006710e+002	1.789000e+000	9.349930e-005	1.084408e+002
1.007640e+002	1.882000e+000	9.341173e-005	1.083265e+002
1.008740e+002	1.992000e+000	9.336470e-005	1.082137e+002
1.009670e+002	2.085000e+000	9.326557e-005	1.080765e+002
1.010610e+002	2.179000e+000	9.320089e-005	1.079525e+002
1.011700e+002	2.288000e+000	9.312591e-005	1.078367e+002
1.012640e+002	2.382000e+000	9.304666e-005	1.076801e+002
1.013730e+002	2.491000e+000	9.299189e-005	1.075457e+002
1.014660e+002	2.584000e+000	9.289677e-005	1.074005e+002
1.015600e+002	2.678000e+000	9.285034e-005	1.072705e+002
1.016690e+002	2.787000e+000	9.279889e-005	1.071294e+002
1.017630e+002	2.881000e+000	9.271657e-005	1.069641e+002
1.018560e+002	2.974000e+000	9.265668e-005	1.068116e+002
1.019650e+002	3.083000e+000	9.262649e-005	1.066643e+002
1.020590e+002	3.177000e+000	9.257961e-005	1.064912e+002
1.021680e+002	3.286000e+000	9.254165e-005	1.063340e+002
1.022770e+002	3.395000e+000	9.249936e-005	1.061283e+002
1.023870e+002	3.505000e+000	9.246057e-005	1.059418e+002
1.024800e+002	3.598000e+000	9.244419e-005	1.057472e+002
1.025890e+002	3.707000e+000	9.242552e-005	1.055711e+002
1.026990e+002	3.817000e+000	9.238689e-005	1.053545e+002
1.028080e+002	3.926000e+000	9.240233e-005	1.051412e+002
1.029170e+002	4.035000e+000	9.239873e-005	1.049182e+002
1.030260e+002	4.144000e+000	9.240574e-005	1.046873e+002
1.031200e+002	4.238000e+000	9.241397e-005	1.044669e+002
1.032130e+002	4.331000e+000	9.247398e-005	1.042749e+002
1.033230e+002	4.441000e+000	9.252669e-005	1.040652e+002
1.034160e+002	4.534000e+000	9.257116e-005	1.037956e+002
1.035250e+002	4.643000e+000	9.262620e-005	1.035891e+002
1.036190e+002	4.737000e+000	9.272758e-005	1.033289e+002
1.037280e+002	4.846000e+000	9.282007e-005	1.031033e+002
1.038220e+002	4.940000e+000	9.290327e-005	1.028623e+002
1.039310e+002	5.049000e+000	9.302748e-005	1.026460e+002
1.040250e+002	5.143000e+000	9.313667e-005	1.024205e+002
1.041180e+002	5.236000e+000	9.326250e-005	1.021821e+002
1.042120e+002	5.330000e+000	9.338423e-005	1.019427e+002
1.043210e+002	5.439000e+000	9.352653e-005	1.017340e+002
1.044300e+002	5.548000e+000	9.374561e-005	1.014816e+002
1.045240e+002	5.642000e+000	9.397730e-005	1.012300e+002
1.046170e+002	5.735000e+000	9.418074e-005	1.010016e+002
1.047270e+002	5.845000e+000	9.438476e-005	1.007589e+002
1.048360e+002	5.954000e+000	9.465904e-005	1.005079e+002
1.049290e+002	6.047000e+000	9.495028e-005	1.002481e+002
1.050230e+002	6.141000e+000	9.521283e-005	1.000190e+002
1.051170e+002	6.235000e+000	9.551102e-005	9.979532e+001
1.052100e+002	6.328000e+000	9.579924e-005	9.958607e+001
1.053190e+002	6.437000e+000	9.612487e-005	9.937504e+001
1.054290e+002	6.547000e+000	9.653223e-005	9.912570e+001
1.055220e+002	6.640000e+000	9.691023e-005	9.889435e+001
1.056160e+002	6.734000e+000	9.728754e-005	9.868797e+001
1.057090e+002	6.827000e+000	9.767370e-005	9.848952e+001
1.058030e+002	6.921000e+000	9.810965e-005	9.830128e+001
1.058970e+002	7.015000e+000	9.852025e-005	9.811657e+001
1.060060e+002	7.124000e+000	9.897362e-005	9.793241e+001
1.060990e+002	7.217000e+000	9.950332e-005	9.774314e+001
1.062090e+002	7.327000e+000	1.000191e-004	9.757552e+001
1.063020e+002	7.420000e+000	1.005464e-004	9.740207e+001
1.063960e+002	7.514000e+000	1.010754e-004	9.726779e+001
1.065050e+002	7.623000e+000	1.016237e-004	9.712936e+001
1.065990e+002	7.717000e+000	1.022676e-004	9.699389e+001
1.066920e+002	7.810000e+000	1.028253e-004	9.688493e+001
1.067860e+002	7.904000e+000	1.033766e-004	9.678372e+001
1.068950e+002	8.013000e+000	1.039836e-004	9.669133e+001
1.070040e+002	8.122000e+000	1.047403e-004	9.660262e+001
1.071130e+002	8.231000e+000	1.054703e-004	9.652400e+001
1.072070e+002	8.325000e+000	1.061846e-004	9.648346e+001
1.073010e+002	8.419000e+000	1.068183e-004	9.645589e+001
1.073940e+002	8.512000e+000	1.074996e-004	9.645499e+001
1.074880e+002	8.606000e+000	1.081417e-004	9.645229e+001
1.075970e+002	8.715000e+000	1.088011e-004	9.647192e+001
1.076900e+002	8.808000e+000	1.095503e-004	9.651592e+001
1.078000e+002	8.918000e+000	1.102387e-004	9.656914e+001
1.078930e+002	9.011000e+000	1.109784e-004	9.663766e+001
1.079870e+002	9.105000e+000	1.116180e-004	9.672500e+001
1.080800e+002	9.198000e+000	1.122783e-004	9.681113e+001
1.081740e+002	9.292000e+000	1.129429e-004	9.691850e+001
1.082680e+002	9.386000e+000	1.135731e-004	9.703934e+001
1.083610e+002	9.479000e+000	1.141975e-004	9.716766e+001
1.084700e+002	9.588000e+000	1.148419e-004	9.730828e+001
1.085800e+002	9.698000e+000	1.155615e-004	9.748586e+001
1.086730e+002	9.791000e+000	1.162626e-004	9.767007e+001
1.087820e+002	9.900000e+000	1.168485e-004	9.784519e+001
1.088920e+002	1.001000e+001	1.175052e-004	9.805200e+001
1.089850e+002	1.010300e+001	1.180786e-004	9.825877e+001
1.090940e+002	1.021200e+001	1.186430e-004	9.846177e+001
1.091880e+002	1.030600e+001	1.192134e-004	9.869287e+001
1.092820e+002	1.040000e+001	1.197190e-004	9.892908e+001
1.093460e+002	1.046400e+001	1.201702e-004	9.913886e+001
