TimeAll	TimeExperiment	R	Theta
1.462990e+002	7.900000e-002	2.390854e-004	1.082078e+002
1.464070e+002	1.869998e-001	2.393151e-004	1.080708e+002
1.465020e+002	2.819998e-001	2.394815e-004	1.079522e+002
1.465980e+002	3.779998e-001	2.396556e-004	1.078251e+002
1.466910e+002	4.710000e-001	2.398314e-004	1.077018e+002
1.467880e+002	5.679998e-001	2.400206e-004	1.075756e+002
1.468820e+002	6.619999e-001	2.401831e-004	1.074417e+002
1.469780e+002	7.579999e-001	2.403402e-004	1.073153e+002
1.470740e+002	8.539999e-001	2.405203e-004	1.071773e+002
1.471690e+002	9.489999e-001	2.406757e-004	1.070381e+002
1.472640e+002	1.044000e+000	2.408106e-004	1.069014e+002
1.473560e+002	1.136000e+000	2.409473e-004	1.067632e+002
1.474500e+002	1.230000e+000	2.411317e-004	1.066228e+002
1.475440e+002	1.324000e+000	2.412271e-004	1.064843e+002
1.476410e+002	1.421000e+000	2.413729e-004	1.063382e+002
1.477350e+002	1.515000e+000	2.415063e-004	1.062022e+002
1.478650e+002	1.645000e+000	2.416238e-004	1.060417e+002
1.479590e+002	1.739000e+000	2.417177e-004	1.058991e+002
1.480530e+002	1.833000e+000	2.418170e-004	1.057576e+002
1.481620e+002	1.942000e+000	2.418998e-004	1.056038e+002
1.482550e+002	2.035000e+000	2.420271e-004	1.054351e+002
1.483650e+002	2.145000e+000	2.420822e-004	1.052810e+002
1.484580e+002	2.238000e+000	2.421827e-004	1.051109e+002
1.485670e+002	2.347000e+000	2.422548e-004	1.049534e+002
1.486610e+002	2.441000e+000	2.423079e-004	1.047674e+002
1.487550e+002	2.535000e+000	2.423762e-004	1.046091e+002
1.488480e+002	2.628000e+000	2.424024e-004	1.044345e+002
1.489570e+002	2.737000e+000	2.424355e-004	1.042639e+002
1.490510e+002	2.831000e+000	2.424796e-004	1.040662e+002
1.491600e+002	2.940000e+000	2.424851e-004	1.038776e+002
1.492690e+002	3.049000e+000	2.424893e-004	1.036583e+002
1.493630e+002	3.143000e+000	2.424477e-004	1.034561e+002
1.494570e+002	3.237000e+000	2.424192e-004	1.032563e+002
1.495500e+002	3.330000e+000	2.423697e-004	1.030771e+002
1.496440e+002	3.424000e+000	2.423230e-004	1.028770e+002
1.497100e+002	3.490000e+000	2.422706e-004	1.026796e+002
1.498040e+002	3.584000e+000	2.421967e-004	1.024754e+002
1.498990e+002	3.679000e+000	2.420714e-004	1.022789e+002
1.499900e+002	3.770000e+000	2.419657e-004	1.020756e+002
1.500830e+002	3.863000e+000	2.418455e-004	1.018774e+002
1.501800e+002	3.960000e+000	2.416802e-004	1.016702e+002
1.502750e+002	4.055000e+000	2.415024e-004	1.014472e+002
1.503670e+002	4.147000e+000	2.413540e-004	1.012451e+002
1.504630e+002	4.243000e+000	2.411491e-004	1.010308e+002
1.505590e+002	4.339000e+000	2.409001e-004	1.008220e+002
1.506540e+002	4.434000e+000	2.406787e-004	1.005945e+002
1.507550e+002	4.535000e+000	2.404050e-004	1.003629e+002
1.508540e+002	4.634000e+000	2.401358e-004	1.001357e+002
1.509460e+002	4.726000e+000	2.398804e-004	9.991117e+001
1.510390e+002	4.819000e+000	2.395679e-004	9.970018e+001
1.511340e+002	4.914000e+000	2.392408e-004	9.948170e+001
1.512260e+002	5.006000e+000	2.389518e-004	9.928760e+001
1.513190e+002	5.099000e+000	2.385983e-004	9.907551e+001
1.514500e+002	5.230000e+000	2.382293e-004	9.885371e+001
1.515440e+002	5.324000e+000	2.378162e-004	9.864162e+001
1.516370e+002	5.417000e+000	2.374412e-004	9.844456e+001
1.517310e+002	5.511000e+000	2.370273e-004	9.822801e+001
1.518250e+002	5.605000e+000	2.365851e-004	9.801910e+001
1.519180e+002	5.698000e+000	2.361168e-004	9.780809e+001
1.520270e+002	5.807000e+000	2.356178e-004	9.758350e+001
1.521000e+002	5.880000e+000	2.349673e-004	9.732027e+001
1.521930e+002	5.973000e+000	2.344356e-004	9.710670e+001
1.522870e+002	6.067000e+000	2.338624e-004	9.689015e+001
1.524340e+002	6.214000e+000	2.331770e-004	9.665279e+001
1.525430e+002	6.323000e+000	2.324631e-004	9.639259e+001
1.526370e+002	6.417000e+000	2.317132e-004	9.614580e+001
1.527300e+002	6.510000e+000	2.310274e-004	9.594049e+001
1.528390e+002	6.619000e+000	2.302949e-004	9.572007e+001
1.529330e+002	6.713000e+000	2.294840e-004	9.547478e+001
1.530270e+002	6.807000e+000	2.287193e-004	9.527168e+001
1.531200e+002	6.900000e+000	2.279356e-004	9.505917e+001
1.532140e+002	6.994000e+000	2.271503e-004	9.485915e+001
1.533230e+002	7.103000e+000	2.262857e-004	9.464845e+001
1.534170e+002	7.197000e+000	2.253027e-004	9.442644e+001
1.535100e+002	7.290000e+000	2.244519e-004	9.423343e+001
1.536040e+002	7.384000e+000	2.235705e-004	9.404082e+001
1.536970e+002	7.477000e+000	2.227124e-004	9.386452e+001
1.537910e+002	7.571000e+000	2.217746e-004	9.368800e+001
1.538850e+002	7.665000e+000	2.208574e-004	9.351128e+001
1.539780e+002	7.758000e+000	2.199175e-004	9.334214e+001
1.540720e+002	7.852000e+000	2.189736e-004	9.317889e+001
1.541650e+002	7.945000e+000	2.180159e-004	9.302615e+001
1.542590e+002	8.039000e+000	2.170219e-004	9.286983e+001
1.543530e+002	8.133000e+000	2.160783e-004	9.272868e+001
1.544460e+002	8.226000e+000	2.150438e-004	9.258955e+001
1.545400e+002	8.320000e+000	2.140667e-004	9.245523e+001
1.546330e+002	8.413000e+000	2.130209e-004	9.232192e+001
1.547430e+002	8.523000e+000	2.119735e-004	9.220682e+001
1.548360e+002	8.616000e+000	2.108028e-004	9.206704e+001
1.549450e+002	8.725000e+000	2.096753e-004	9.195156e+001
1.550390e+002	8.819000e+000	2.084804e-004	9.183662e+001
1.551480e+002	8.928000e+000	2.074009e-004	9.174268e+001
1.552570e+002	9.037000e+000	2.061121e-004	9.163487e+001
1.553660e+002	9.146000e+000	2.048317e-004	9.154200e+001
1.554760e+002	9.256000e+000	2.035605e-004	9.146142e+001
1.555850e+002	9.365000e+000	2.023014e-004	9.139090e+001
1.556780e+002	9.458000e+000	2.010287e-004	9.133022e+001
1.557720e+002	9.552000e+000	1.999823e-004	9.129009e+001
1.558810e+002	9.661000e+000	1.988586e-004	9.125187e+001
1.559750e+002	9.755000e+000	1.975754e-004	9.121904e+001
1.560680e+002	9.848000e+000	1.965222e-004	9.119695e+001
1.561620e+002	9.942000e+000	1.954229e-004	9.118111e+001
1.562710e+002	1.005100e+001	1.943607e-004	9.117805e+001
1.563800e+002	1.016000e+001	1.931030e-004	9.117841e+001
1.564900e+002	1.027000e+001	1.919053e-004	9.119756e+001
1.565830e+002	1.036300e+001	1.907434e-004	9.121826e+001
1.566920e+002	1.047200e+001	1.897582e-004	9.124682e+001
1.568020e+002	1.058200e+001	1.885963e-004	9.128586e+001
1.569110e+002	1.069100e+001	1.875102e-004	9.133732e+001
1.570040e+002	1.078400e+001	1.864252e-004	9.139246e+001
1.570980e+002	1.087800e+001	1.855406e-004	9.144813e+001
1.571920e+002	1.097200e+001	1.846132e-004	9.150845e+001
1.572850e+002	1.106500e+001	1.836872e-004	9.158257e+001
1.573790e+002	1.115900e+001	1.827637e-004	9.165247e+001
1.574720e+002	1.125200e+001	1.819265e-004	9.173463e+001
1.575660e+002	1.134600e+001	1.810357e-004	9.182334e+001
1.576750e+002	1.145500e+001	1.801258e-004	9.191595e+001
1.577690e+002	1.154900e+001	1.791664e-004	9.204188e+001
1.578620e+002	1.164200e+001	1.782827e-004	9.214256e+001
1.579720e+002	1.175200e+001	1.774103e-004	9.226908e+001
1.580420e+002	1.182200e+001	1.764807e-004	9.241200e+001
1.581370e+002	1.191700e+001	1.756062e-004	9.254114e+001
